# total [l(l+1)/2pi] C_l's (units: [microK]^2)
# for l=2 to 3000, i.e. number of multipoles equal to 2999
#
# -> if you don't want to see such a header, set 'headers' to 'no' in input file
# -> for CMB lensing (d), these are C_l^dd for the deflection field.
#    Remember the conversion factors:
#    C_l^dd (deflection) = l(l+1) C_l^phi-phi
#    C_l^gg (shear/convergence) = 1/4 (l(l+1))^2 C_l^phi-phi
#
# 1:l     2:TT                     3:EE                     4:BB                     5:TE                     6:dd                     7:dT                     8:dE                 
    2       1.016212367383e+03       3.089457147561e-02       0.000000000000e+00       2.619236341469e+00       4.891980684970e-08       2.970887844304e-03      -1.230277449861e-05 
    3       9.627158949941e+02       3.973123891372e-02       0.000000000000e+00       2.944743419993e+00       6.084878675937e-08       2.984095339558e-03      -1.319166149559e-05 
    4       9.118908842611e+02       3.447698501048e-02       0.000000000000e+00       2.754022656068e+00       7.064354463624e-08       2.916712457423e-03      -1.117900931892e-05 
    5       8.738010497024e+02       2.307671501091e-02       0.000000000000e+00       2.346100852444e+00       7.909987721109e-08       2.820736882204e-03      -7.648867063658e-06 
    6       8.477292726249e+02       1.293252773423e-02       0.000000000000e+00       1.889907259638e+00       8.642311468780e-08       2.714349702994e-03      -3.767971770393e-06 
    7       8.308002840081e+02       6.977925524204e-03       0.000000000000e+00       1.483829511569e+00       9.286697036704e-08       2.606170208998e-03      -4.447284638469e-07 
    8       8.210281191835e+02       4.477633653262e-03       0.000000000000e+00       1.171058706834e+00       9.864480270957e-08       2.501643687503e-03       1.774163257371e-06 
    9       8.166226066790e+02       3.582687277605e-03       0.000000000000e+00       9.611722722227e-01       1.038563530145e-07       2.404306220835e-03       2.719397389941e-06 
   10       8.158742303015e+02       3.054619412914e-03       0.000000000000e+00       8.447677021033e-01       1.085312653868e-07       2.314649862894e-03       2.547620667531e-06 
   11       8.183976558517e+02       2.568576485983e-03       0.000000000000e+00       8.020608709801e-01       1.096216351130e-07       2.240574810398e-03       1.644982267256e-06 
   12       8.230505398135e+02       2.235287207707e-03       0.000000000000e+00       8.103218624835e-01       1.131819372385e-07       2.153541019632e-03       4.417845031873e-07 
   13       8.294790039847e+02       2.139529216913e-03       0.000000000000e+00       8.496586457158e-01       1.163683950479e-07       2.078723320718e-03      -6.405317641720e-07 
   14       8.373747854472e+02       2.225406262549e-03       0.000000000000e+00       9.048442747636e-01       1.192231484147e-07       2.001767986986e-03      -1.352507720804e-06 
   15       8.466131835182e+02       2.405513211339e-03       0.000000000000e+00       9.661778814535e-01       1.217805392454e-07       1.932011147890e-03      -1.586110480060e-06 
   16       8.566196561939e+02       2.658887361314e-03       0.000000000000e+00       1.028824335605e+00       1.240719421865e-07       1.865814737214e-03      -1.403585682419e-06 
   17       8.676404106745e+02       3.025075074046e-03       0.000000000000e+00       1.090984605905e+00       1.261237494381e-07       1.802205321940e-03      -9.709367278454e-07 
   18       8.791981597499e+02       3.546152933188e-03       0.000000000000e+00       1.154078283369e+00       1.279089295948e-07       1.742714575568e-03      -4.969255289369e-07 
   19       8.913780146229e+02       4.225811233937e-03       0.000000000000e+00       1.219959699267e+00       1.295961256021e-07       1.688649391336e-03      -1.242986840577e-07 
   20       9.041366483489e+02       5.049884779452e-03       0.000000000000e+00       1.290136891626e+00       1.310465022002e-07       1.636745549002e-03       2.380948190933e-08 
   21       9.174751671041e+02       6.012815302256e-03       0.000000000000e+00       1.364208532897e+00       1.323469564951e-07       1.586847574482e-03      -6.191452852999e-08 
   22       9.311864903453e+02       7.109845474400e-03       0.000000000000e+00       1.440587423274e+00       1.334728778203e-07       1.537854582382e-03      -3.131687022298e-07 
   23       9.453180063419e+02       8.343344513860e-03       0.000000000000e+00       1.516948171466e+00       1.344940252905e-07       1.491170301089e-03      -6.409024057016e-07 
   24       9.598391469047e+02       9.716363945358e-03       0.000000000000e+00       1.590383308116e+00       1.353624114622e-07       1.447592341233e-03      -9.283761212316e-07 
   25       9.747513164934e+02       1.122881280784e-02       0.000000000000e+00       1.658638991588e+00       1.361321618682e-07       1.407036612382e-03      -1.108134114857e-06 
   26       9.899527450353e+02       1.288138877924e-02       0.000000000000e+00       1.719703454895e+00       1.367817830033e-07       1.367962321315e-03      -1.138129306620e-06 
   27       1.005421263327e+03       1.468894815330e-02       0.000000000000e+00       1.772804955636e+00       1.373379949057e-07       1.330406702111e-03      -1.043307013565e-06 
   28       1.021093513832e+03       1.667064201481e-02       0.000000000000e+00       1.817763706470e+00       1.377648066224e-07       1.294297000457e-03      -8.850388479898e-07 
   29       1.037035544874e+03       1.883736638043e-02       0.000000000000e+00       1.855026087891e+00       1.381348270113e-07       1.260278667053e-03      -7.094875199987e-07 
   30       1.053268513998e+03       2.119738568845e-02       0.000000000000e+00       1.885501392027e+00       1.384683822240e-07       1.228470054630e-03      -5.713336311755e-07 
   31       1.069736044680e+03       2.375852732939e-02       0.000000000000e+00       1.910130002885e+00       1.386860865692e-07       1.198169336503e-03      -5.288210970475e-07 
   32       1.086461901757e+03       2.652773375861e-02       0.000000000000e+00       1.928568147056e+00       1.388323311344e-07       1.169285004390e-03      -5.793934906641e-07 
   33       1.103431620851e+03       2.951124893202e-02       0.000000000000e+00       1.940004807578e+00       1.389351876579e-07       1.141307063080e-03      -6.893488711466e-07 
   34       1.120578762364e+03       3.271494062466e-02       0.000000000000e+00       1.943513464235e+00       1.389585373725e-07       1.113286063314e-03      -8.138741971137e-07 
   35       1.137915382921e+03       3.614522103240e-02       0.000000000000e+00       1.938137171254e+00       1.389339058982e-07       1.085699443082e-03      -9.250440116564e-07 
   36       1.155434269179e+03       3.980838393406e-02       0.000000000000e+00       1.922815486382e+00       1.388679996033e-07       1.059322798319e-03      -9.948104894366e-07 
   37       1.173097500355e+03       4.371035479464e-02       0.000000000000e+00       1.896573648268e+00       1.387220564429e-07       1.034684652101e-03      -9.965805077242e-07 
   38       1.190937901230e+03       4.785677168309e-02       0.000000000000e+00       1.859282374504e+00       1.385340567051e-07       1.011951321966e-03      -9.393031756427e-07 
   39       1.208982660702e+03       5.225288085009e-02       0.000000000000e+00       1.811153283233e+00       1.383393672595e-07       9.908735620184e-04      -8.497379321902e-07 
   40       1.227220926546e+03       5.690347813792e-02       0.000000000000e+00       1.752546979136e+00       1.381248354755e-07       9.707139060650e-04      -7.657423511327e-07 
   41       1.245621868202e+03       6.181314379307e-02       0.000000000000e+00       1.683818970418e+00       1.378439036320e-07       9.505305263216e-04      -7.267107091180e-07 
   42       1.264205797197e+03       6.698710815745e-02       0.000000000000e+00       1.604775575612e+00       1.375188850726e-07       9.304208493141e-04      -7.353753936970e-07 
   43       1.282989295004e+03       7.243061925279e-02       0.000000000000e+00       1.515055962427e+00       1.371749057436e-07       9.107279711847e-04      -7.801543878725e-07 
   44       1.301962515804e+03       7.814869293862e-02       0.000000000000e+00       1.414277678962e+00       1.368047110727e-07       8.916973885891e-04      -8.440215181520e-07 
   45       1.321102601454e+03       8.414587693029e-02       0.000000000000e+00       1.302062374409e+00       1.363807956213e-07       8.734788004067e-04      -9.083488156370e-07 
   46       1.340424792183e+03       9.042548423118e-02       0.000000000000e+00       1.178127491207e+00       1.359270747874e-07       8.561913798052e-04      -9.682855908960e-07 
   47       1.359942204778e+03       9.699011211439e-02       0.000000000000e+00       1.042218115775e+00       1.354714489512e-07       8.398466384193e-04      -1.022969367101e-06 
   48       1.379649545556e+03       1.038418242108e-01       0.000000000000e+00       8.940807175930e-01       1.350217454568e-07       8.243026812419e-04      -1.071554230764e-06 
   49       1.399521450132e+03       1.109821267175e-01       0.000000000000e+00       7.334624867360e-01       1.345596280583e-07       8.092395605677e-04      -1.113221758867e-06 
   50       1.419527753134e+03       1.184121249022e-01       0.000000000000e+00       5.601221532945e-01       1.340525016607e-07       7.942777875183e-04      -1.147788058617e-06 
   51       1.439688035359e+03       1.261330978910e-01       0.000000000000e+00       3.738674448009e-01       1.335142314979e-07       7.794543917175e-04      -1.177791053758e-06 
   52       1.460029013024e+03       1.341460387756e-01       0.000000000000e+00       1.745266510757e-01       1.329647610501e-07       7.648932389825e-04      -1.207260678175e-06 
   53       1.480568058857e+03       1.424514730101e-01       0.000000000000e+00      -3.806208828091e-02       1.324109993932e-07       7.506687293090e-04      -1.241292297582e-06 
   54       1.501312338577e+03       1.510494431046e-01       0.000000000000e+00      -2.640509060370e-01       1.318432442607e-07       7.367969730429e-04      -1.286151582946e-06 
   55       1.522263223820e+03       1.599397124428e-01       0.000000000000e+00      -5.035681352444e-01       1.312434970324e-07       7.232636561918e-04      -1.347500784745e-06 
   56       1.543432792932e+03       1.691224710966e-01       0.000000000000e+00      -7.566717194621e-01       1.306251589448e-07       7.101420554110e-04      -1.424034926618e-06 
   57       1.564829916797e+03       1.785977785397e-01       0.000000000000e+00      -1.023384442583e+00       1.300056369470e-07       6.975021647390e-04      -1.511694915614e-06 
   58       1.586454697898e+03       1.883653532630e-01       0.000000000000e+00      -1.303706687534e+00       1.293937621642e-07       6.853714060850e-04      -1.605246608775e-06 
   59       1.608297812372e+03       1.984245660046e-01       0.000000000000e+00      -1.597616005401e+00       1.287875895588e-07       6.737283150599e-04      -1.698169641777e-06 
   60       1.630339852060e+03       2.087744329805e-01       0.000000000000e+00      -1.905066684555e+00       1.281719967156e-07       6.624959548293e-04      -1.782542300734e-06 
   61       1.652560488886e+03       2.194130753373e-01       0.000000000000e+00      -2.225992952213e+00       1.275267189543e-07       6.515784962155e-04      -1.850778958610e-06 
   62       1.674969860241e+03       2.303359710408e-01       0.000000000000e+00      -2.560320393628e+00       1.268611333471e-07       6.410016320500e-04      -1.901812987152e-06 
   63       1.697583092905e+03       2.415372968066e-01       0.000000000000e+00      -2.907956343131e+00       1.261901540776e-07       6.308069035036e-04      -1.936769694445e-06 
   64       1.720410762932e+03       2.530104040172e-01       0.000000000000e+00      -3.268786168503e+00       1.255237927821e-07       6.210089590164e-04      -1.957336628077e-06 
   65       1.743458549352e+03       2.647477950156e-01       0.000000000000e+00      -3.642672955358e+00       1.248659457878e-07       6.115920121260e-04      -1.965816880959e-06 
   66       1.766726887882e+03       2.767410994003e-01       0.000000000000e+00      -4.029457191517e+00       1.242130794126e-07       6.025061617872e-04      -1.965184187432e-06 
   67       1.790210624630e+03       2.889810503185e-01       0.000000000000e+00      -4.428956451395e+00       1.235528100803e-07       5.936635751839e-04      -1.959139809661e-06 
   68       1.813903648524e+03       3.014584223293e-01       0.000000000000e+00      -4.840980673802e+00       1.228700427108e-07       5.849703916311e-04      -1.951347292622e-06 
   69       1.837814652640e+03       3.141671186547e-01       0.000000000000e+00      -5.265382295652e+00       1.221719917675e-07       5.764429547483e-04      -1.942728242229e-06 
   70       1.861953959110e+03       3.271016697745e-01       0.000000000000e+00      -5.702015756345e+00       1.214703778503e-07       5.681195731650e-04      -1.933454867707e-06 
   71       1.886328607942e+03       3.402563280780e-01       0.000000000000e+00      -6.150722884848e+00       1.207739911796e-07       5.600261766520e-04      -1.923702801490e-06 
   72       1.910942138058e+03       3.536250687503e-01       0.000000000000e+00      -6.611332982884e+00       1.200880146134e-07       5.521747234288e-04      -1.913650027322e-06 
   73       1.935794368335e+03       3.672015906592e-01       0.000000000000e+00      -7.083662908121e+00       1.194132949691e-07       5.445615502946e-04      -1.903475752860e-06 
   74       1.960881178644e+03       3.809793172415e-01       0.000000000000e+00      -7.567517157361e+00       1.187455611583e-07       5.371656655830e-04      -1.893359226788e-06 
   75       1.986194290887e+03       3.949513973899e-01       0.000000000000e+00      -8.062687949726e+00       1.180745876444e-07       5.299469849410e-04      -1.883478500437e-06 
   76       2.011725514110e+03       4.091102459848e-01       0.000000000000e+00      -8.568948520310e+00       1.173887187554e-07       5.228623031708e-04      -1.874027986132e-06 
   77       2.037480857548e+03       4.234460667985e-01       0.000000000000e+00      -9.086031405365e+00       1.166924802444e-07       5.159224510968e-04      -1.865279656860e-06 
   78       2.063468605308e+03       4.379480605949e-01       0.000000000000e+00      -9.613646330051e+00       1.159936705402e-07       5.091473766323e-04      -1.857536099996e-06 
   79       2.089694955258e+03       4.526048531736e-01       0.000000000000e+00      -1.015148659156e+01       1.152981200885e-07       5.025488412877e-04      -1.851112835152e-06 
   80       2.116163891600e+03       4.674044868173e-01       0.000000000000e+00      -1.069922900307e+01       1.146092968959e-07       4.961295219211e-04      -1.846338018718e-06 
   81       2.142877057455e+03       4.823344117374e-01       0.000000000000e+00      -1.125653383773e+01       1.139278852376e-07       4.898820839306e-04      -1.843552123246e-06 
   82       2.169833627439e+03       4.973814775218e-01       0.000000000000e+00      -1.182304477261e+01       1.132513368354e-07       4.837882258868e-04      -1.843107591651e-06 
   83       2.197030180239e+03       5.125319245808e-01       0.000000000000e+00      -1.239838883265e+01       1.125733938140e-07       4.778176956077e-04      -1.845368466238e-06 
   84       2.224462840972e+03       5.277719077150e-01       0.000000000000e+00      -1.298218316607e+01       1.118870929494e-07       4.719395755379e-04      -1.850605349803e-06 
   85       2.252134395422e+03       5.430891852812e-01       0.000000000000e+00      -1.357405678385e+01       1.111961138715e-07       4.661616698033e-04      -1.858650980859e-06 
   86       2.280048127053e+03       5.584716956746e-01       0.000000000000e+00      -1.417363233819e+01       1.105062136437e-07       4.604990087421e-04      -1.869158681430e-06 
   87       2.308205564140e+03       5.739070504890e-01       0.000000000000e+00      -1.478051966944e+01       1.098218113555e-07       4.549619403742e-04      -1.881693871027e-06 
   88       2.336606390493e+03       5.893825349073e-01       0.000000000000e+00      -1.539431586487e+01       1.091457477613e-07       4.495556531061e-04      -1.895728043853e-06 
   89       2.365248356188e+03       6.048851080915e-01       0.000000000000e+00      -1.601460531749e+01       1.084790301354e-07       4.442796845526e-04      -1.910632595946e-06 
   90       2.394127188287e+03       6.204014035718e-01       0.000000000000e+00      -1.664095978476e+01       1.078205619938e-07       4.391274164771e-04      -1.925672502275e-06 
   91       2.423236501568e+03       6.359177296373e-01       0.000000000000e+00      -1.727293844742e+01       1.071668573387e-07       4.340855558483e-04      -1.939999843770e-06 
   92       2.452567709251e+03       6.514200697257e-01       0.000000000000e+00      -1.791008796824e+01       1.065117390774e-07       4.291336020156e-04      -1.952647184313e-06 
   93       2.482112638690e+03       6.668942826885e-01       0.000000000000e+00      -1.855194771017e+01       1.058488824219e-07       4.242515804766e-04      -1.962741594425e-06 
   94       2.511872022349e+03       6.823267371963e-01       0.000000000000e+00      -1.919806616084e+01       1.051810591412e-07       4.194464720603e-04      -1.970217403495e-06 
   95       2.541848124755e+03       6.977037739129e-01       0.000000000000e+00      -1.984798709847e+01       1.045130526668e-07       4.147307117203e-04      -1.975251120628e-06 
   96       2.572042099874e+03       7.130115172129e-01       0.000000000000e+00      -2.050124478049e+01       1.038489115135e-07       4.101141880947e-04      -1.978056570047e-06 
   97       2.602453938970e+03       7.282358783157e-01       0.000000000000e+00      -2.115736407312e+01       1.031918195770e-07       4.056039968556e-04      -1.978886999448e-06 
   98       2.633082418459e+03       7.433625584184e-01       0.000000000000e+00      -2.181586058095e+01       1.025439590668e-07       4.012041874709e-04      -1.978037232797e-06 
   99       2.663925047769e+03       7.583770518300e-01       0.000000000000e+00      -2.247624077661e+01       1.019063659169e-07       3.969155033768e-04      -1.975845867564e-06 
  100       2.694978017196e+03       7.732646491043e-01       0.000000000000e+00      -2.313800213027e+01       1.012787775164e-07       3.927351155629e-04      -1.972697516399e-06 
  101       2.726236145761e+03       7.880104401739e-01       0.000000000000e+00      -2.380063323935e+01       1.006594726012e-07       3.886563495685e-04      -1.969025093254e-06 
  102       2.757692829066e+03       8.025993174838e-01       0.000000000000e+00      -2.446361395801e+01       1.000451031506e-07       3.846684058904e-04      -1.965312143936e-06 
  103       2.789339987152e+03       8.170159791247e-01       0.000000000000e+00      -2.512641552683e+01       9.943051812943e-08       3.807560738027e-04      -1.962095221111e-06 
  104       2.821169768606e+03       8.312453138573e-01       0.000000000000e+00      -2.578850514406e+01       9.881067194007e-08       3.769047897612e-04      -1.959852500370e-06 
  105       2.853180037359e+03       8.452736086704e-01       0.000000000000e+00      -2.644936010351e+01       9.818736064774e-08       3.731176323704e-04      -1.958638445803e-06 
  106       2.885369533315e+03       8.590875109475e-01       0.000000000000e+00      -2.710845581701e+01       9.756394239367e-08       3.694012144711e-04      -1.958379844678e-06 
  107       2.917736149840e+03       8.726736683847e-01       0.000000000000e+00      -2.776526171949e+01       9.694333295530e-08       3.657605006336e-04      -1.958981929913e-06 
