# total lensed [l(l+1)/2pi] C_l's (units: [microK]^2)
# for l=2 to 2500, i.e. number of multipoles equal to 2499
#
# -> if you don't want to see such a header, set 'headers' to 'no' in input file
# -> for CMB lensing (d), these are C_l^dd for the deflection field.
#    Remember the conversion factors:
#    C_l^dd (deflection) = l(l+1) C_l^phi-phi
#    C_l^gg (shear/convergence) = 1/4 (l(l+1))^2 C_l^phi-phi
#
# 1:l     2:TT                     3:EE                     4:BB                     5:TE                     6:dd                     7:dT                     8:dE                 
    2       1.017529764381e+03       3.119892762211e-02       1.691347783320e-06       2.628211077027e+00       4.856772679407e-08       2.977716171424e-03      -1.236677594742e-05 
    3       9.636978506150e+02       4.033613711015e-02       3.383401644198e-06       2.962922681411e+00       6.078126509841e-08       2.994413889613e-03      -1.329882787852e-05 
    4       9.126039060321e+02       3.519153539017e-02       5.640557471714e-06       2.776295617053e+00       7.065692230233e-08       2.926515424908e-03      -1.131697685948e-05 
    5       8.743195694590e+02       2.368961921156e-02       8.463717239326e-06       2.369059112114e+00       7.917698794703e-08       2.830142020738e-03      -7.795355854502e-06 
    6       8.480963267823e+02       1.333882656352e-02       1.185397542373e-05       1.911120766512e+00       8.658688242495e-08       2.723567081664e-03      -3.896582867302e-06 
    7       8.310283988384e+02       7.203246333077e-03       1.581259850486e-05       1.501767728828e+00       9.305780630304e-08       2.614680694763e-03      -5.333848410531e-07 
    8       8.211529345575e+02       4.607161180089e-03       2.034100178962e-05       1.185003073487e+00       9.878021876224e-08       2.509122652917e-03       1.737402513333e-06 
    9       8.167046083547e+02       3.686357877976e-03       2.544072425010e-05       9.713169088205e-01       1.039314141998e-07       2.411114870990e-03       2.733720225024e-06 
   10       8.159017453146e+02       3.158294398770e-03       3.111340211595e-05       8.517170209923e-01       1.086136176498e-07       2.321281836393e-03       2.600525553142e-06 
   11       8.184141220902e+02       2.669297377462e-03       3.736074198255e-05       8.066515909435e-01       1.096459569672e-07       2.246621838186e-03       1.715919329849e-06 
   12       8.230494776037e+02       2.327433106967e-03       4.418449419277e-05       8.134944534001e-01       1.132090291568e-07       2.158869535963e-03       5.078677639767e-07 
   13       8.294449532990e+02       2.226528133423e-03       5.158642721960e-05       8.521380860289e-01       1.163980049440e-07       2.083577149919e-03      -5.984694401459e-07 
   14       8.373732131006e+02       2.315075514825e-03       5.956830372181e-05       9.071316571915e-01       1.192552784774e-07       2.007130677917e-03      -1.344310611924e-06 
   15       8.466356507910e+02       2.501737184250e-03       6.813185886673e-05       9.683365122667e-01       1.218150047879e-07       1.937457807998e-03      -1.611533971759e-06 
   16       8.566328106464e+02       2.760409290654e-03       7.727878141725e-05       1.030715448659e+00       1.241086043906e-07       1.871064362604e-03      -1.451419075290e-06 
   17       8.676540633945e+02       3.129489767038e-03       8.701069796690e-05       1.092730074114e+00       1.261624625755e-07       1.807000990463e-03      -1.024320616973e-06 
   18       8.792224580506e+02       3.653312376959e-03       9.732915920907e-05       1.155484979910e+00       1.279494915414e-07       1.747278436992e-03      -5.396837155041e-07 
   19       8.914263265378e+02       4.338116537942e-03       1.082356379856e-04       1.220707350370e+00       1.296385578329e-07       1.693209507632e-03      -1.451575079011e-07 
   20       9.042275340694e+02       5.171829853006e-03       1.197315087595e-04       1.289986419926e+00       1.310906776122e-07       1.641206922129e-03       2.711405403958e-08 
   21       9.176057372018e+02       6.147108710876e-03       1.318180669819e-04       1.363362888271e+00       1.323927517863e-07       1.591010977432e-03      -3.904171733014e-08 
   22       9.313285197318e+02       7.256252883775e-03       1.444965065482e-04       1.439703614025e+00       1.335202107072e-07       1.541553749646e-03      -2.814963527659e-07 
   23       9.454667866859e+02       8.502428238415e-03       1.577679497868e-04       1.516180826957e+00       1.345428269397e-07       1.494555674973e-03      -6.120595069204e-07 
   24       9.600228009947e+02       9.890486629730e-03       1.716334245278e-04       1.589201186662e+00       1.354125802415e-07       1.451171699911e-03      -9.115462408063e-07 
   25       9.749693348066e+02       1.141974010788e-02       1.860939065168e-04       1.657068301853e+00       1.361836073491e-07       1.410886857297e-03      -1.108728640141e-06 
   26       9.901647034852e+02       1.308948226274e-02       2.011502917556e-04       1.718583033944e+00       1.368344197260e-07       1.371486144549e-03      -1.156129875331e-06 
   27       1.005617517288e+03       1.491398255407e-02       2.168034370745e-04       1.772497462819e+00       1.373917428497e-07       1.333363265118e-03      -1.073798297651e-06 
   28       1.021313036711e+03       1.691212155711e-02       2.330541412680e-04       1.817796141705e+00       1.378195730067e-07       1.297159626754e-03      -9.185660088246e-07 
   29       1.037312830191e+03       1.909498948378e-02       2.499032103482e-04       1.854858986240e+00       1.381905402324e-07       1.263473846317e-03      -7.367085161670e-07 
   30       1.053612495517e+03       2.147128292279e-02       2.673514037064e-04       1.884808546549e+00       1.385249840659e-07       1.232004477454e-03      -5.857027540924e-07 
   31       1.070130171777e+03       2.404931760895e-02       2.853994339019e-04       1.908833892180e+00       1.387435098138e-07       1.201586359787e-03      -5.279900891114e-07 
   32       1.086892570955e+03       2.683625870798e-02       3.040480476350e-04       1.926723731375e+00       1.388905251580e-07       1.172214344471e-03      -5.648992905673e-07 
   33       1.103899035380e+03       2.983851501701e-02       3.232979741016e-04       1.937782712032e+00       1.389941104650e-07       1.143733410606e-03      -6.674882158036e-07 
   34       1.121095610276e+03       3.306208523539e-02       3.431499150364e-04       1.941187115986e+00       1.390181366043e-07       1.115578436406e-03      -7.953995620597e-07 
   35       1.138487640022e+03       3.651326761391e-02       3.636045828557e-04       1.935942021597e+00       1.389941356324e-07       1.088198713371e-03      -9.182699585783e-07 
   36       1.156053466913e+03       4.019812931730e-02       3.846626771849e-04       1.920889510710e+00       1.389288102395e-07       1.062156325867e-03      -1.001886193371e-06 
   37       1.173742112535e+03       4.412240627874e-02       4.063248706105e-04       1.894940959822e+00       1.387833807182e-07       1.037738864947e-03      -1.012777251423e-06 
   38       1.191590624925e+03       4.829192254587e-02       4.285917906552e-04       1.857876116552e+00       1.385958407658e-07       1.015072533279e-03      -9.586389922169e-07 
   39       1.209637117379e+03       5.271226103556e-02       4.514640331259e-04       1.809809886099e+00       1.384015739677e-07       9.939395784313e-04      -8.670380823526e-07 
   40       1.227884330148e+03       5.738861940589e-02       4.749421677039e-04       1.750988576244e+00       1.381874321625e-07       9.736519603799e-04      -7.772291313227e-07 
   41       1.246313796843e+03       6.232582033405e-02       4.990267149832e-04       1.681681964592e+00       1.379068525297e-07       9.533234002317e-04      -7.304268112647e-07 
   42       1.264943335757e+03       6.752840641395e-02       5.237180671834e-04       1.601798163155e+00       1.375821569867e-07       9.330639276158e-04      -7.307814467979e-07 
   43       1.283781660321e+03       7.300053411308e-02       5.490165426144e-04       1.511156738224e+00       1.372384768028e-07       9.132161159558e-04      -7.683041793849e-07 
   44       1.302809262396e+03       7.874591904380e-02       5.749224059845e-04       1.409593730673e+00       1.368685497215e-07       8.940241182026e-04      -8.280061845309e-07 
   45       1.321994290052e+03       8.476803108395e-02       6.014358390633e-04       1.296930420146e+00       1.364448551456e-07       8.756368911779e-04      -8.931267145032e-07 
   46       1.341352177395e+03       9.107080248481e-02       6.285568446896e-04       1.172868610330e+00       1.359913168395e-07       8.581788529050e-04      -9.582124966705e-07 
   47       1.360899268113e+03       9.765809306829e-02       6.562853122780e-04       1.037063945386e+00       1.355358472594e-07       8.416695001156e-04      -1.020696962658e-06 
   48       1.380634219241e+03       1.045334811438e-01       6.846210410034e-04       8.891525711895e-01       1.350862797490e-07       8.259764166341e-04      -1.077445684993e-06 
   49       1.400536381711e+03       1.117002534758e-01       7.135637371206e-04       7.287492850610e-01       1.346242759189e-07       8.107907513908e-04      -1.124700788013e-06 
   50       1.420579837542e+03       1.191610242740e-01       7.431130105895e-04       5.554884994465e-01       1.341172338162e-07       7.957428810215e-04      -1.159499407194e-06 
   51       1.440783760375e+03       1.269164935145e-01       7.732683700866e-04       3.691645339652e-01       1.335790254854e-07       7.808682271058e-04      -1.184758086544e-06 
   52       1.461172925425e+03       1.349663342377e-01       8.040292220068e-04       1.696262057468e-01       1.330296021974e-07       7.662839237847e-04      -1.206129850341e-06 
   53       1.481762385895e+03       1.433095072302e-01       8.353948683924e-04      -4.326249563782e-02       1.324758756054e-07       7.520548571360e-04      -1.230848791048e-06 
   54       1.502556590305e+03       1.519442335351e-01       8.673645042203e-04      -2.696222436731e-01       1.319081393473e-07       7.381845330358e-04      -1.267888402424e-06 
   55       1.523554440627e+03       1.608686435982e-01       8.999372778714e-04      -5.095486761591e-01       1.313083873686e-07       7.246460526730e-04      -1.325527918520e-06 
   56       1.544767960199e+03       1.700829765266e-01       9.331124963436e-04      -7.630808544061e-01       1.306900261203e-07       7.115115978100e-04      -1.402584673991e-06 
   57       1.566206717271e+03       1.795878790220e-01       9.668894662666e-04      -1.030224680485e+00       1.300704693384e-07       6.988537466516e-04      -1.494243725931e-06 
   58       1.587871653501e+03       1.893837755088e-01       1.001267434941e-03      -1.310961220670e+00       1.294585514036e-07       6.867031687431e-04      -1.594252929119e-06 
   59       1.609754432753e+03       1.994708670063e-01       1.036245590089e-03      -1.605246169470e+00       1.288523260802e-07       6.750423704446e-04      -1.694785965372e-06 
   60       1.631836789898e+03       2.098491300011e-01       1.071823059598e-03      -1.913009313660e+00       1.282366642952e-07       6.637991704810e-04      -1.786300482101e-06 
   61       1.654099398683e+03       2.205175629922e-01       1.107999027996e-03      -2.234163543786e+00       1.275912926868e-07       6.528820412326e-04      -1.859645944563e-06 
   62       1.676552274567e+03       2.314717310491e-01       1.144773116957e-03      -2.568635464872e+00       1.269255924439e-07       6.423161645377e-04      -1.913570095451e-06 
   63       1.699210071616e+03       2.427056655942e-01       1.182145090148e-03      -2.916340736796e+00       1.262544844238e-07       6.321407727179e-04      -1.949461762200e-06 
   64       1.722082823360e+03       2.542125435923e-01       1.220114747428e-03      -3.277174904706e+00       1.255879850662e-07       6.223675289668e-04      -1.969369324734e-06 
   65       1.745175593628e+03       2.659846625523e-01       1.258681928300e-03      -3.651013165985e+00       1.249299931356e-07       6.129769250953e-04      -1.976062976766e-06 
   66       1.768488127378e+03       2.780134155288e-01       1.297846515367e-03      -4.037710137217e+00       1.242769744801e-07       6.039145397905e-04      -1.973099075751e-06 
   67       1.792014501529e+03       2.902892661235e-01       1.337608437779e-03      -4.437099621155e+00       1.236165415617e-07       5.950871573901e-04      -1.964886581501e-06 
   68       1.815747959358e+03       3.028027379526e-01       1.377967734505e-03      -4.849007043470e+00       1.229335942293e-07       5.863958997271e-04      -1.955761647370e-06 
   69       1.839697331712e+03       3.155476717418e-01       1.418924751286e-03      -5.273290210212e+00       1.222353505633e-07       5.778567322168e-04      -1.946723060086e-06 
   70       1.863873331193e+03       3.285185863286e-01       1.460479989975e-03      -5.709806428193e+00       1.215335364382e-07       5.695091231071e-04      -1.937833539354e-06 
   71       1.888283450281e+03       3.417097235211e-01       1.502634057146e-03      -6.158400655290e+00       1.208369460458e-07       5.613805459569e-04      -1.929125430022e-06 
   72       1.912931744740e+03       3.551150490447e-01       1.545387669077e-03      -6.618905591444e+00       1.201507646047e-07       5.534849181005e-04      -1.920596867538e-06 
   73       1.937818617016e+03       3.687282534894e-01       1.588741656731e-03      -7.091141769659e+00       1.194758393495e-07       5.458209828584e-04      -1.912207805399e-06 
   74       1.962940599649e+03       3.825427532566e-01       1.632696970740e-03      -7.574917647006e+00       1.188078973088e-07       5.383706354927e-04      -1.903875904602e-06 
   75       1.988290138669e+03       3.965516915066e-01       1.677254686383e-03      -8.070029695626e+00       1.181367083818e-07       5.310971929085e-04      -1.895472285084e-06 
   76       2.013859658097e+03       4.107474736664e-01       1.722415951754e-03      -8.576253524890e+00       1.174506117212e-07       5.239607697026e-04      -1.886907809115e-06 
   77       2.039655087903e+03       4.251202740753e-01       1.768181810322e-03      -9.093315177698e+00       1.167541353504e-07       5.169733784325e-04      -1.878429386776e-06 
   78       2.065684420888e+03       4.396592574744e-01       1.814553354913e-03      -9.620914740935e+00       1.160550815103e-07       5.101555708022e-04      -1.870396281681e-06 
   79       2.091953523709e+03       4.543530118282e-01       1.861531785412e-03      -1.015873475855e+01       1.153592836032e-07       5.035197144245e-04      -1.863197291546e-06 
   80       2.118466008073e+03       4.691895397280e-01       1.909118412584e-03      -1.070644013865e+01       1.146702115568e-07       4.970690922783e-04      -1.857251679159e-06 
   81       2.145223101926e+03       4.841562497942e-01       1.957314661890e-03      -1.126367806059e+01       1.139885503388e-07       4.907969735138e-04      -1.853010111185e-06 
   82       2.172223520645e+03       4.992399480794e-01       2.006122077300e-03      -1.183007788204e+01       1.133117509304e-07       4.846856556070e-04      -1.850955604782e-06 
   83       2.199463338231e+03       5.144268294712e-01       2.055542325117e-03      -1.240525104611e+01       1.126335530631e-07       4.787054778622e-04      -1.851604482055e-06 
   84       2.226938219909e+03       5.297030103986e-01       2.105577171616e-03      -1.298880110693e+01       1.119469907757e-07       4.728258601618e-04      -1.855371490199e-06 
   85       2.254650827350e+03       5.450562472527e-01       2.156228403373e-03      -1.358035591970e+01       1.112557455836e-07       4.670538852507e-04      -1.862124203090e-06 
   86       2.282604410622e+03       5.604744884060e-01       2.207497900665e-03      -1.417954064158e+01       1.105655772901e-07       4.614034040069e-04      -1.871520083134e-06 
   87       2.310800468122e+03       5.759453587301e-01       2.259387665799e-03      -1.478596816356e+01       1.098809070680e-07       4.558833384252e-04      -1.883126878278e-06 
   88       2.339238657451e+03       5.914561600966e-01       2.311899826483e-03      -1.539923918767e+01       1.092045769805e-07       4.504971884040e-04      -1.896416442042e-06 
   89       2.367916706295e+03       6.069938718770e-01       2.365036639208e-03      -1.601894230413e+01       1.085375947097e-07       4.452425242653e-04      -1.910758399263e-06 
   90       2.396830323304e+03       6.225451514431e-01       2.418800492623e-03      -1.664465406846e+01       1.078788631453e-07       4.401104650094e-04      -1.925413657536e-06 
   91       2.425973108968e+03       6.380963346678e-01       2.473193910910e-03      -1.727593907863e+01       1.072248944884e-07       4.350851423027e-04      -1.939527764381e-06 
   92       2.455336466498e+03       6.536334364249e-01       2.528219557166e-03      -1.791235005227e+01       1.065695085211e-07       4.301431501990e-04      -1.952124110103e-06 
   93       2.484912222933e+03       6.691423456123e-01       2.583880297935e-03      -1.855343158021e+01       1.059063772800e-07       4.252619457328e-04      -1.962318186411e-06 
   94       2.514701136978e+03       6.846094426856e-01       2.640179400574e-03      -1.919873186566e+01       1.052382739326e-07       4.204484914966e-04      -1.970031503084e-06 
   95       2.544705511923e+03       7.000210763587e-01       2.697120371954e-03      -1.984779290152e+01       1.045699843425e-07       4.157160055296e-04      -1.975425277567e-06 
   96       2.574926548202e+03       7.153633804849e-01       2.754706904108e-03      -2.050014707704e+01       1.039055591195e-07       4.110753290296e-04      -1.978695009379e-06 
   97       2.605364291479e+03       7.306222772280e-01       2.812942878446e-03      -2.115531730552e+01       1.032481838543e-07       4.065346897319e-04      -1.980072410920e-06 
   98       2.636017580727e+03       7.457834802319e-01       2.871832369972e-03      -2.181281715187e+01       1.026000419856e-07       4.020994589197e-04      -1.979827378842e-06 
   99       2.666883996310e+03       7.608324977923e-01       2.931379651501e-03      -2.247215096025e+01       1.019621701410e-07       3.977719020649e-04      -1.978270005993e-06 
  100       2.697959808062e+03       7.757546360260e-01       2.991589197876e-03      -2.313281398167e+01       1.013343057938e-07       3.935509231007e-04      -1.975752633924e-06 
  101       2.729239923373e+03       7.905350020426e-01       3.052465690184e-03      -2.379429250162e+01       1.007147270778e-07       3.894318023239e-04      -1.972671945971e-06 
  102       2.760717835266e+03       8.051585071142e-01       3.114014019972e-03      -2.445606396767e+01       1.001000846023e-07       3.854059279296e-04      -1.969471100901e-06 
  103       2.792385570484e+03       8.196098698465e-01       3.176239293467e-03      -2.511759711709e+01       9.948522510908e-08       3.814605211760e-04      -1.966641907124e-06 
  104       2.824235354282e+03       8.338740045940e-01       3.239146684618e-03      -2.577835686570e+01       9.886510081445e-08       3.775831670355e-04      -1.964623440295e-06 
  105       2.856264972780e+03       8.479372396354e-01       3.302740962547e-03      -2.643781945166e+01       9.824150878355e-08       3.737770779382e-04      -1.963469485477e-06 
  106       2.888473041571e+03       8.617862702329e-01       3.367026907831e-03      -2.709545958487e+01       9.761780886969e-08       3.700483888941e-04      -1.963118035198e-06 
  107       2.920857321031e+03       8.754077953964e-01       3.432009460494e-03      -2.775074604609e+01       9.699691833317e-08       3.664014780276e-04      -1.963487907257e-06 
