# total [l(l+1)/2pi] C_l's (units: [microK]^2)
# for l=2 to 1996, i.e. number of multipoles equal to 1995
#
# -> if you don't want to see such a header, set 'headers' to 'no' in input file
# -> for CMB lensing (d), these are C_l^dd for the deflection field.
#    Remember the conversion factors:
#    C_l^dd (deflection) = l(l+1) C_l^phi-phi
#    C_l^gg (shear/convergence) = 1/4 (l(l+1))^2 C_l^phi-phi
#
# 1:l     2:TT                     3:EE                     4:BB                     5:TE                     6:dd                     7:dT                     8:dE                 
    2       4.172494748003e+02       1.062663545362e-02       0.000000000000e+00       1.462595886388e+00       3.934853811220e-08      -2.860714888835e-05      -5.545589167294e-06 
    3       4.111534374860e+02       1.905222128661e-02       0.000000000000e+00       1.720324160190e+00       4.833611077666e-08       1.032450662379e-04      -6.948327363251e-06 
    4       4.038284935943e+02       2.411075505176e-02       0.000000000000e+00       1.755235088907e+00       5.655684941984e-08       1.761397608557e-04      -7.406010983913e-06 
    5       3.976639174981e+02       2.451652707279e-02       0.000000000000e+00       1.660084914082e+00       6.413512516139e-08       2.188856509338e-04      -7.109218717691e-06 
    6       3.933282266673e+02       2.112036053731e-02       0.000000000000e+00       1.496490513223e+00       7.128932374641e-08       2.456328996987e-04      -6.228792393944e-06 
    7       3.907634225680e+02       1.586724470783e-02       0.000000000000e+00       1.308800903086e+00       7.800687554263e-08       2.626303996661e-04      -4.965192091171e-06 
    8       3.895407154209e+02       1.065197107584e-02       0.000000000000e+00       1.124533841213e+00       8.423221702953e-08       2.725154275164e-04      -3.517341786752e-06 
    9       3.897515521667e+02       6.668253284691e-03       0.000000000000e+00       9.596365515620e-01       8.999980508327e-08       2.773454982985e-04      -2.068477113354e-06 
   10       3.910302662254e+02       4.266364399811e-03       0.000000000000e+00       8.227974957633e-01       9.546321832946e-08       2.797961363983e-04      -7.726471208383e-07 
   11       3.929827522497e+02       3.173125850626e-03       0.000000000000e+00       7.183523145224e-01       9.108821536140e-08       2.874413496903e-04       2.544834413173e-07 
   12       3.957841119881e+02       2.851213154951e-03       0.000000000000e+00       6.469263592208e-01       9.463484353747e-08       2.843214246613e-04       9.510353623907e-07 
   13       3.990390687812e+02       2.809683598085e-03       0.000000000000e+00       6.064098259071e-01       9.790250138718e-08       2.789962219849e-04       1.301467830749e-06 
   14       4.027667557605e+02       2.766346895498e-03       0.000000000000e+00       5.931308233890e-01       1.009210265026e-07       2.747004985951e-04       1.335000670342e-06 
   15       4.066361884500e+02       2.657510064241e-03       0.000000000000e+00       6.023314154676e-01       1.037155150828e-07       2.720857245447e-04       1.108695655743e-06 
   16       4.109798013900e+02       2.553378475609e-03       0.000000000000e+00       6.284980884804e-01       1.063071741639e-07       2.704224057719e-04       7.011590679125e-07 
   17       4.153777003190e+02       2.553118722512e-03       0.000000000000e+00       6.660328705997e-01       1.087142332252e-07       2.684141664477e-04       1.995904333700e-07 
   18       4.198894144453e+02       2.715271591962e-03       0.000000000000e+00       7.103552023071e-01       1.109069321652e-07       2.650675138619e-04      -3.122142761386e-07 
   19       4.246097131089e+02       3.029664135781e-03       0.000000000000e+00       7.582703152864e-01       1.130359100955e-07       2.610352210458e-04      -7.712727287790e-07 
   20       4.293729593565e+02       3.453319385601e-03       0.000000000000e+00       8.062667264664e-01       1.149735148583e-07       2.573533814381e-04      -1.120069426175e-06 
   21       4.341732943406e+02       3.948288500814e-03       0.000000000000e+00       8.527195370659e-01       1.167875356085e-07       2.546418563096e-04      -1.326240049249e-06 
   22       4.389587976876e+02       4.478899963443e-03       0.000000000000e+00       8.966233388319e-01       1.184613628638e-07       2.528334676442e-04      -1.381060085741e-06 
   23       4.437925575740e+02       5.056358878972e-03       0.000000000000e+00       9.377998439164e-01       1.200508314271e-07       2.505983076752e-04      -1.303035223856e-06 
   24       4.486971207227e+02       5.710507610282e-03       0.000000000000e+00       9.764581993380e-01       1.215132824017e-07       2.461949969673e-04      -1.134682618980e-06 
   25       4.536757189256e+02       6.470078352416e-03       0.000000000000e+00       1.013030949401e+00       1.228920897004e-07       2.414947170859e-04      -9.055984386899e-07 
   26       4.586673558701e+02       7.361124944152e-03       0.000000000000e+00       1.048104909202e+00       1.241694894456e-07       2.394023433738e-04      -6.507922228360e-07 
   27       4.636435641022e+02       8.385237734021e-03       0.000000000000e+00       1.082162507252e+00       1.253667633346e-07       2.387230705704e-04      -4.129436525608e-07 
   28       4.685562835913e+02       9.534763240986e-03       0.000000000000e+00       1.115615001870e+00       1.264530996493e-07       2.366771307835e-04      -2.388881363871e-07 
   29       4.734444159871e+02       1.080606740607e-02       0.000000000000e+00       1.148424988749e+00       1.274880214439e-07       2.331884049673e-04      -1.445129482907e-07 
   30       4.783354463173e+02       1.219449934826e-02       0.000000000000e+00       1.180356153453e+00       1.284875588920e-07       2.292846404454e-04      -1.307254580174e-07 
   31       4.832201566051e+02       1.369503388182e-02       0.000000000000e+00       1.211031159185e+00       1.293848469253e-07       2.260796535961e-04      -1.909212559737e-07 
   32       4.881157117988e+02       1.531219380538e-02       0.000000000000e+00       1.239782817615e+00       1.302166485424e-07       2.237130637009e-04      -3.127633634761e-07 
   33       4.930165711515e+02       1.705382611517e-02       0.000000000000e+00       1.265721958332e+00       1.310060461780e-07       2.218348235021e-04      -4.746770404735e-07 
   34       4.978922421597e+02       1.892674766299e-02       0.000000000000e+00       1.287884858508e+00       1.317223544010e-07       2.199430259046e-04      -6.479457415952e-07 
   35       5.027543295321e+02       2.093032591999e-02       0.000000000000e+00       1.305666933542e+00       1.323918180631e-07       2.178844337112e-04      -8.123742663247e-07 
   36       5.076065978808e+02       2.306051770870e-02       0.000000000000e+00       1.318529852461e+00       1.330196084439e-07       2.155513972415e-04      -9.465923587375e-07 
   37       5.124376583547e+02       2.531371938874e-02       0.000000000000e+00       1.325972866947e+00       1.335724955409e-07       2.128174868572e-04      -1.028792732996e-06 
   38       5.172675660883e+02       2.769460751127e-02       0.000000000000e+00       1.327837717913e+00       1.340825704493e-07       2.098064996315e-04      -1.055696012096e-06 
   39       5.221124268048e+02       3.021089189400e-02       0.000000000000e+00       1.324107213157e+00       1.345796920284e-07       2.067365821551e-04      -1.032484801842e-06 
   40       5.269692787224e+02       3.287130508970e-02       0.000000000000e+00       1.314829013775e+00       1.350523200524e-07       2.038538136519e-04      -9.689046894822e-07 
   41       5.318242604735e+02       3.568427207902e-02       0.000000000000e+00       1.300102651694e+00       1.354604077438e-07       2.013797872511e-04      -8.784260746052e-07 
   42       5.366852835380e+02       3.865323286961e-02       0.000000000000e+00       1.280025291022e+00       1.358230131095e-07       1.993227157456e-04      -7.734467583672e-07 
   43       5.415565153859e+02       4.177991322268e-02       0.000000000000e+00       1.254735457793e+00       1.361615508789e-07       1.975756135620e-04      -6.689497238852e-07 
   44       5.464277224999e+02       4.506556565509e-02       0.000000000000e+00       1.224431751385e+00       1.364694890596e-07       1.959500011848e-04      -5.843119577940e-07 
   45       5.512832383756e+02       4.851111002488e-02       0.000000000000e+00       1.189293298707e+00       1.367228407580e-07       1.942345598473e-04      -5.387176500687e-07 
   46       5.561352822005e+02       5.211767022929e-02       0.000000000000e+00       1.149205590563e+00       1.369423425860e-07       1.924332888017e-04      -5.336729247844e-07 
   47       5.609982785750e+02       5.588615116650e-02       0.000000000000e+00       1.103957855135e+00       1.371522069858e-07       1.906117435692e-04      -5.636090440050e-07 
   48       5.658786386164e+02       5.981706720775e-02       0.000000000000e+00       1.053316859528e+00       1.373591603578e-07       1.888337387014e-04      -6.199736671929e-07 
   49       5.707739896847e+02       6.391052437024e-02       0.000000000000e+00       9.970251951252e-01       1.375470687954e-07       1.871599502265e-04      -6.908590648233e-07 
   50       5.756784090994e+02       6.816635152804e-02       0.000000000000e+00       9.348226894471e-01       1.376873511630e-07       1.856361863118e-04      -7.631012490935e-07 
   51       5.806015871135e+02       7.258457739127e-02       0.000000000000e+00       8.665214714969e-01       1.377922287560e-07       1.842561210904e-04      -8.305433638558e-07 
   52       5.855535340462e+02       7.716505218231e-02       0.000000000000e+00       7.919483181859e-01       1.378792317483e-07       1.829809947581e-04      -8.884231404804e-07 
   53       5.905385547532e+02       8.190729935661e-02       0.000000000000e+00       7.109226971959e-01       1.379543654868e-07       1.817454199818e-04      -9.310964658624e-07 
   54       5.955547608925e+02       8.681050478911e-02       0.000000000000e+00       6.232561406407e-01       1.380089038163e-07       1.804539685416e-04      -9.519617559931e-07 
   55       6.005981656366e+02       9.187362714495e-02       0.000000000000e+00       5.287992107472e-01       1.380267853992e-07       1.790102327632e-04      -9.454760836478e-07 
   56       6.056772763468e+02       9.709578587206e-02       0.000000000000e+00       4.275974945279e-01       1.380199959985e-07       1.774253490796e-04      -9.142796609707e-07 
   57       6.108012727295e+02       1.024759506534e-01       0.000000000000e+00       3.197732644526e-01       1.380041063599e-07       1.757431544003e-04      -8.645549581094e-07 
   58       6.159754395379e+02       1.080128227082e-01       0.000000000000e+00       2.054824828499e-01       1.379870175494e-07       1.740109083893e-04      -8.043180296147e-07 
   59       6.212008573755e+02       1.137048286998e-01       0.000000000000e+00       8.491602980357e-02       1.379669610209e-07       1.722792264178e-04      -7.435920377103e-07 
   60       6.264740935003e+02       1.195501146432e-01       0.000000000000e+00      -4.169906895197e-02       1.379303147046e-07       1.706020015772e-04      -6.945869363844e-07 
   61       6.317907489309e+02       1.255465548672e-01       0.000000000000e+00      -1.741522308727e-01       1.378588489731e-07       1.690277514173e-04      -6.688493556001e-07 
   62       6.371577296484e+02       1.316917950300e-01       0.000000000000e+00      -3.124236547856e-01       1.377611457894e-07       1.675704280315e-04      -6.671425106458e-07 
   63       6.425831936589e+02       1.379832079923e-01       0.000000000000e+00      -4.565471139501e-01       1.376507911240e-07       1.662286826023e-04      -6.865127131124e-07 
   64       6.480727546062e+02       1.444178741123e-01       0.000000000000e+00      -6.065600625783e-01       1.375369149861e-07       1.649926575133e-04      -7.229445828711e-07 
   65       6.536292949335e+02       1.509925756316e-01       0.000000000000e+00      -7.625041155032e-01       1.374230677858e-07       1.638429853957e-04      -7.712637440329e-07 
   66       6.592527790449e+02       1.577037910603e-01       0.000000000000e+00      -9.244255278472e-01       1.373060014458e-07       1.627497507222e-04      -8.250362834929e-07 
   67       6.649400664666e+02       1.645476895631e-01       0.000000000000e+00      -1.092375674691e+00       1.371743522165e-07       1.616714139507e-04      -8.764649720592e-07 
   68       6.706877509964e+02       1.715201804002e-01       0.000000000000e+00      -1.266390233285e+00       1.370142884477e-07       1.605663105422e-04      -9.181375952932e-07 
   69       6.765017638270e+02       1.786170854348e-01       0.000000000000e+00      -1.446420759182e+00       1.368325607955e-07       1.594338211623e-04      -9.491423611533e-07 
   70       6.823893895641e+02       1.858339916548e-01       0.000000000000e+00      -1.632390043623e+00       1.366400801675e-07       1.582836352918e-04      -9.706076986425e-07 
   71       6.883563049199e+02       1.931661950790e-01       0.000000000000e+00      -1.824212120413e+00       1.364450491207e-07       1.571239820606e-04      -9.840345181128e-07 
   72       6.944064692659e+02       2.006086965505e-01       0.000000000000e+00      -2.021792200898e+00       1.362523217982e-07       1.559613913671e-04      -9.913269159730e-07 
   73       7.005420151854e+02       2.081561975303e-01       0.000000000000e+00      -2.225026608944e+00       1.360627145283e-07       1.548004458008e-04      -9.948237984125e-07 
   74       7.067631390254e+02       2.158030958914e-01       0.000000000000e+00      -2.433802715908e+00       1.358722656550e-07       1.536435233682e-04      -9.973314241425e-07 
   75       7.130679914495e+02       2.235434817119e-01       0.000000000000e+00      -2.647998875621e+00       1.356714431695e-07       1.524905310225e-04      -1.002156866153e-06 
   76       7.194544253987e+02       2.313712634651e-01       0.000000000000e+00      -2.867483260488e+00       1.354493888053e-07       1.513407249462e-04      -1.012358464996e-06 
   77       7.259258499042e+02       2.392805824546e-01       0.000000000000e+00      -3.092110268507e+00       1.352104586585e-07       1.501993797542e-04      -1.028180168470e-06 
   78       7.324862498610e+02       2.472654666626e-01       0.000000000000e+00      -3.321723339878e+00       1.349620845482e-07       1.490724312386e-04      -1.048981486546e-06 
   79       7.391383531130e+02       2.553197055500e-01       0.000000000000e+00      -3.556155911604e+00       1.347098397425e-07       1.479643696065e-04      -1.073949176034e-06 
   80       7.458835590934e+02       2.634368485243e-01       0.000000000000e+00      -3.795231329940e+00       1.344570574352e-07       1.468780627083e-04      -1.102084549546e-06 
   81       7.527218674645e+02       2.716102034068e-01       0.000000000000e+00      -4.038762762833e+00       1.342044230061e-07       1.458145734408e-04      -1.132190442675e-06 
   82       7.596518067578e+02       2.798328349002e-01       0.000000000000e+00      -4.286553112364e+00       1.339495393805e-07       1.447729713233e-04      -1.162857839363e-06 
   83       7.666703630143e+02       2.880975630563e-01       0.000000000000e+00      -4.538394927197e+00       1.336864648083e-07       1.437501382496e-04      -1.192452155474e-06 
   84       7.737745990511e+02       2.963969751421e-01       0.000000000000e+00      -4.794080478652e+00       1.334085937424e-07       1.427425918143e-04      -1.219444553485e-06 
   85       7.809669770059e+02       3.047234668561e-01       0.000000000000e+00      -5.053434099992e+00       1.331195511166e-07       1.417529311580e-04      -1.243532924246e-06 
   86       7.882507914254e+02       3.130692051667e-01       0.000000000000e+00      -5.316285072705e+00       1.328249601699e-07       1.407846191905e-04      -1.264772665782e-06 
   87       7.956285147779e+02       3.214261142333e-01       0.000000000000e+00      -5.582458021566e+00       1.325291560362e-07       1.398399863802e-04      -1.283258001459e-06 
   88       8.031017545069e+02       3.297858740986e-01       0.000000000000e+00      -5.851772997902e+00       1.322349482389e-07       1.389201142276e-04      -1.299124792960e-06 
   89       8.106712100856e+02       3.381399193816e-01       0.000000000000e+00      -6.124045562848e+00       1.319433684164e-07       1.380247153297e-04      -1.312553423623e-06 
   90       8.183366300706e+02       3.464794379700e-01       0.000000000000e+00      -6.399086870613e+00       1.316534029321e-07       1.371520100320e-04      -1.323771752147e-06 
   91       8.260967691558e+02       3.547953697132e-01       0.000000000000e+00      -6.676703751736e+00       1.313617100183e-07       1.362985996701e-04      -1.333058136661e-06 
   92       8.339493452265e+02       3.630784051149e-01       0.000000000000e+00      -6.956698796349e+00       1.310623211075e-07       1.354593364003e-04      -1.340744529168e-06 
   93       8.418920814355e+02       3.713193680503e-01       0.000000000000e+00      -7.238869353511e+00       1.307491318359e-07       1.346291210607e-04      -1.347138561122e-06 
   94       8.499261049936e+02       3.795104326017e-01       0.000000000000e+00      -7.523004176192e+00       1.304249640336e-07       1.338090616092e-04      -1.352262505157e-06 
   95       8.580529825334e+02       3.876440876695e-01       0.000000000000e+00      -7.808886423288e+00       1.300946139562e-07       1.330014515105e-04      -1.356061487133e-06 
   96       8.662736529574e+02       3.957127731656e-01       0.000000000000e+00      -8.096294766049e+00       1.297621546255e-07       1.322078970357e-04      -1.358479438330e-06 
   97       8.745883993861e+02       4.037088839773e-01       0.000000000000e+00      -8.385003456470e+00       1.294308041151e-07       1.314292529801e-04      -1.359459059947e-06 
   98       8.829968211060e+02       4.116247739318e-01       0.000000000000e+00      -8.674782395664e+00       1.291027862690e-07       1.306655566706e-04      -1.358941786552e-06 
   99       8.914978055175e+02       4.194527597599e-01       0.000000000000e+00      -8.965397202246e+00       1.287791836879e-07       1.299159602646e-04      -1.356867748477e-06 
  100       9.000895000824e+02       4.271851250605e-01       0.000000000000e+00      -9.256609280720e+00       1.284597828222e-07       1.291786613384e-04      -1.353175733157e-06 
  101       9.087692842724e+02       4.348141242647e-01       0.000000000000e+00      -9.548175889854e+00       1.281429110063e-07       1.284508317666e-04      -1.347803145414e-06 
  102       9.175337415163e+02       4.423319865998e-01       0.000000000000e+00      -9.839850211065e+00       1.278252652719e-07       1.277285448915e-04      -1.340685966696e-06 
  103       9.263786311485e+02       4.497309200535e-01       0.000000000000e+00      -1.013138141680e+01       1.275017327769e-07       1.270067009833e-04      -1.331758713248e-06 
  104       9.352999037692e+02       4.570031658895e-01       0.000000000000e+00      -1.042251670689e+01       1.271673132280e-07       1.262806176384e-04      -1.320994317325e-06 
  105       9.442969639550e+02       4.641411620430e-01       0.000000000000e+00      -1.071300758362e+01       1.268239093175e-07       1.255513382181e-04      -1.308533112910e-06 
  106       9.533697980475e+02       4.711374092906e-01       0.000000000000e+00      -1.100260455574e+01       1.264750005922e-07       1.248212534931e-04      -1.294579816895e-06 
  107       9.625179537128e+02       4.779844271351e-01       0.000000000000e+00      -1.129105533513e+01       1.261236197061e-07       1.240925034890e-04      -1.279367149100e-06 
