# total [l(l+1)/2pi] C_l's (units: [microK]^2)
# for l=2 to 1996, i.e. number of multipoles equal to 1995
#
# -> if you don't want to see such a header, set 'headers' to 'no' in input file
# -> for CMB lensing (d), these are C_l^dd for the deflection field.
#    Remember the conversion factors:
#    C_l^dd (deflection) = l(l+1) C_l^phi-phi
#    C_l^gg (shear/convergence) = 1/4 (l(l+1))^2 C_l^phi-phi
#
# 1:l     2:TT                     3:EE                     4:BB                     5:TE                     6:dd                     7:dT                     8:dE                 
    2       4.187705321074e+02       1.425832399558e-02       0.000000000000e+00       1.657945402834e+00       3.694349314554e-08       1.142068670696e-04      -6.477198505921e-06 
    3       4.124186270803e+02       2.276012439482e-02       0.000000000000e+00       1.854346667204e+00       4.542146331504e-08       2.338018519682e-04      -7.698642448597e-06 
    4       4.043593672803e+02       2.553566284432e-02       0.000000000000e+00       1.804454550876e+00       5.297979873231e-08       2.963601396225e-04      -7.703478771035e-06 
    5       3.978998314446e+02       2.275802109126e-02       0.000000000000e+00       1.628666208512e+00       5.976848000785e-08       3.301339883442e-04      -6.824617303071e-06 
    6       3.934541968842e+02       1.695092048494e-02       0.000000000000e+00       1.400403462268e+00       6.585051211237e-08       3.483381542043e-04      -5.369523682536e-06 
    7       3.911624711301e+02       1.092486423096e-02       0.000000000000e+00       1.168144006052e+00       7.135824342633e-08       3.572420981197e-04      -3.652645964159e-06 
    8       3.906889137399e+02       6.420062375151e-03       0.000000000000e+00       9.589887056176e-01       7.638880845995e-08       3.604595146292e-04      -1.951808672275e-06 
    9       3.914484270250e+02       3.859099121935e-03       0.000000000000e+00       7.873433994113e-01       8.098959938152e-08       3.601660673460e-04      -4.879022217539e-07 
   10       3.934748278000e+02       2.778779546199e-03       0.000000000000e+00       6.588751718243e-01       8.516625428995e-08       3.577086369341e-04       5.903695354220e-07 
   11       3.963740924803e+02       2.447222336061e-03       0.000000000000e+00       5.732159982286e-01       8.263665121911e-08       3.593466028852e-04       1.207493807463e-06 
   12       3.999053822763e+02       2.309718819036e-03       0.000000000000e+00       5.263627965227e-01       8.562908428478e-08       3.528587383110e-04       1.389395742136e-06 
   13       4.040244626774e+02       2.138711226638e-03       0.000000000000e+00       5.117345990940e-01       8.836090657447e-08       3.469119844071e-04       1.201981821447e-06 
   14       4.085723695996e+02       1.953468527094e-03       0.000000000000e+00       5.213977040593e-01       9.086051980632e-08       3.412129678524e-04       7.582515169211e-07 
   15       4.133609547029e+02       1.855704047846e-03       0.000000000000e+00       5.478638635012e-01       9.315184716213e-08       3.356512334684e-04       1.887278542221e-07 
   16       4.185447499587e+02       1.905662806396e-03       0.000000000000e+00       5.845759613028e-01       9.525526041077e-08       3.300225926943e-04      -3.823216345748e-07 
   17       4.239290872181e+02       2.088598175538e-03       0.000000000000e+00       6.260870223642e-01       9.718837514913e-08       3.244095113112e-04      -8.549327935862e-07 
   18       4.294585914924e+02       2.345193319698e-03       0.000000000000e+00       6.683986996880e-01       9.892630431058e-08       3.192420125563e-04      -1.164450116162e-06 
   19       4.352066944249e+02       2.644287211628e-03       0.000000000000e+00       7.097756485911e-01       1.006024364628e-07       3.148808048260e-04      -1.285790082020e-06 
   20       4.410673555121e+02       2.967579911213e-03       0.000000000000e+00       7.490335089182e-01       1.021037388158e-07       3.107863071557e-04      -1.231950456120e-06 
   21       4.470387380968e+02       3.340625873943e-03       0.000000000000e+00       7.862453538673e-01       1.034933818851e-07       3.057549485138e-04      -1.042824044748e-06 
   22       4.530502418265e+02       3.804630733660e-03       0.000000000000e+00       8.220565541112e-01       1.047559451477e-07       2.983315448059e-04      -7.889735587334e-07 
   23       4.591393913922e+02       4.376947575211e-03       0.000000000000e+00       8.572520329328e-01       1.059424921973e-07       2.910392021241e-04      -5.204437875526e-07 
   24       4.653085214473e+02       5.063699993330e-03       0.000000000000e+00       8.926946405074e-01       1.070143038238e-07       2.874014060973e-04      -2.880691196908e-07 
   25       4.715953133595e+02       5.856960924094e-03       0.000000000000e+00       9.287956147496e-01       1.080112618210e-07       2.851072438122e-04      -1.335156473222e-07 
   26       4.779858551591e+02       6.743605153277e-03       0.000000000000e+00       9.656754717780e-01       1.089176702441e-07       2.796816523036e-04      -8.999670253459e-08 
   27       4.844397586492e+02       7.723710435025e-03       0.000000000000e+00       1.002781836474e+00       1.097529912601e-07       2.725214941998e-04      -1.488070650561e-07 
   28       4.908789224856e+02       8.800790863998e-03       0.000000000000e+00       1.039212482441e+00       1.104891818697e-07       2.670518308409e-04      -2.777489021512e-07 
   29       4.973341996752e+02       9.977101556123e-03       0.000000000000e+00       1.074062963264e+00       1.111803425274e-07       2.636042154920e-04      -4.511879763529e-07 
   30       5.038315659884e+02       1.125390190803e-02       0.000000000000e+00       1.106252132582e+00       1.118413132405e-07       2.609891171560e-04      -6.355514513288e-07 
   31       5.103620057042e+02       1.263193718553e-02       0.000000000000e+00       1.134625723297e+00       1.124118502190e-07       2.576919353779e-04      -7.897127317774e-07 
   32       5.169501664303e+02       1.411283474397e-02       0.000000000000e+00       1.158599089438e+00       1.129252843687e-07       2.537748630120e-04      -8.949987705635e-07 
   33       5.236020746242e+02       1.569816215116e-02       0.000000000000e+00       1.177748365055e+00       1.134025643035e-07       2.498946242333e-04      -9.396556083586e-07 
   34       5.302965778312e+02       1.739032624586e-02       0.000000000000e+00       1.191731050518e+00       1.138160545895e-07       2.466710393240e-04      -9.162083937188e-07 
   35       5.370347558968e+02       1.919705255558e-02       0.000000000000e+00       1.200585184966e+00       1.141894490936e-07       2.439743590600e-04      -8.374881065655e-07 
   36       5.438011615196e+02       2.112858323428e-02       0.000000000000e+00       1.204546328453e+00       1.145274901375e-07       2.412551797331e-04      -7.300700017253e-07 
   37       5.505656125980e+02       2.319490613927e-02       0.000000000000e+00       1.203907257523e+00       1.148003377981e-07       2.378915095520e-04      -6.255606883171e-07 
   38       5.573461139561e+02       2.539996191874e-02       0.000000000000e+00       1.198776421869e+00       1.150368612108e-07       2.339809471120e-04      -5.374464392491e-07 
   39       5.641624796460e+02       2.774552798315e-02       0.000000000000e+00       1.189248055882e+00       1.152639640173e-07       2.298895011737e-04      -4.747114547202e-07 
   40       5.710169836218e+02       3.023270950518e-02       0.000000000000e+00       1.175470493119e+00       1.154714414026e-07       2.260628313497e-04      -4.477065964786e-07 
   41       5.779016824926e+02       3.286235168618e-02       0.000000000000e+00       1.157543040896e+00       1.156235294850e-07       2.229194401505e-04      -4.647267917799e-07 
   42       5.848279596534e+02       3.563655059173e-02       0.000000000000e+00       1.135159491634e+00       1.157372991606e-07       2.204497105291e-04      -5.194648708100e-07 
   43       5.918033017434e+02       3.855755528599e-02       0.000000000000e+00       1.107853279582e+00       1.158319197703e-07       2.184350625351e-04      -5.976867832117e-07 
   44       5.988215504585e+02       4.162733615371e-02       0.000000000000e+00       1.075088994519e+00       1.159015845818e-07       2.165283694065e-04      -6.796014989774e-07 
   45       6.058706746291e+02       4.484769019021e-02       0.000000000000e+00       1.036348186830e+00       1.159248853558e-07       2.143521833288e-04      -7.441877578163e-07 
   46       6.129619735426e+02       4.822063037322e-02       0.000000000000e+00       9.914279222513e-01       1.159202921371e-07       2.118922233620e-04      -7.862477130261e-07 
   47       6.201073547693e+02       5.174808673647e-02       0.000000000000e+00       9.402238680715e-01       1.159093874556e-07       2.092465624901e-04      -8.057117807352e-07 
   48       6.273102196872e+02       5.543178782014e-02       0.000000000000e+00       8.826484640335e-01       1.158981986383e-07       2.065236755165e-04      -8.033635217601e-07 
   49       6.345646648204e+02       5.927325235146e-02       0.000000000000e+00       8.186316449926e-01       1.158724379627e-07       2.038423799351e-04      -7.809612144527e-07 
   50       6.418613047332e+02       6.327374910902e-02       0.000000000000e+00       7.481368012373e-01       1.158067503942e-07       2.013115619901e-04      -7.416663146848e-07 
   51       6.492084569323e+02       6.743418297316e-02       0.000000000000e+00       6.712120901844e-01       1.157119654274e-07       1.989597266115e-04      -6.912260282276e-07 
   52       6.566153268319e+02       7.175516356472e-02       0.000000000000e+00       5.879543018233e-01       1.156036237247e-07       1.967769422775e-04      -6.374833368893e-07 
   53       6.640854132843e+02       7.623702477433e-02       0.000000000000e+00       4.984962439395e-01       1.154870599908e-07       1.947295523897e-04      -5.902986778977e-07 
   54       6.716160215205e+02       8.087981494585e-02       0.000000000000e+00       4.030081818394e-01       1.153545774017e-07       1.927568630477e-04      -5.617458027296e-07 
   55       6.792022709875e+02       8.568340215088e-02       0.000000000000e+00       3.016370446463e-01       1.151919852421e-07       1.907909553810e-04      -5.629327634710e-07 
   56       6.868514005797e+02       9.064784312661e-02       0.000000000000e+00       1.943030604675e-01       1.150098481548e-07       1.888331428173e-04      -5.925765703835e-07 
   57       6.945711640126e+02       9.577308879554e-02       0.000000000000e+00       8.085512282877e-02       1.148218970249e-07       1.868995730147e-04      -6.445805968493e-07 
   58       7.023653411399e+02       1.010588719878e-01       0.000000000000e+00      -3.887236568400e-02       1.146351028850e-07       1.849992934459e-04      -7.108798778177e-07 
   59       7.102334260202e+02       1.065047021089e-01       0.000000000000e+00      -1.650604783787e-01       1.144479238350e-07       1.831331129455e-04      -7.812499461473e-07 
   60       7.181703149847e+02       1.121098598065e-01       0.000000000000e+00      -2.979067494108e-01       1.142483911117e-07       1.812924127615e-04      -8.431087849556e-07 
   61       7.261701528600e+02       1.178733600806e-01       0.000000000000e+00      -4.375866942064e-01       1.140204772020e-07       1.794654792599e-04      -8.845391289637e-07 
   62       7.342395861672e+02       1.237938439973e-01       0.000000000000e+00      -5.841260494708e-01       1.137716935625e-07       1.776619339253e-04      -9.050384302842e-07 
   63       7.423869447537e+02       1.298696530954e-01       0.000000000000e+00      -7.375014733878e-01       1.135139455983e-07       1.758942622271e-04      -9.079990933675e-07 
   64       7.506181697086e+02       1.360988525918e-01       0.000000000000e+00      -8.976772176956e-01       1.132552321356e-07       1.741703098099e-04      -8.978775955852e-07 
   65       7.589366333648e+02       1.424792250473e-01       0.000000000000e+00      -1.064604860461e+00       1.129986667265e-07       1.724926087470e-04      -8.802892034441e-07 
   66       7.673429593015e+02       1.490082640326e-01       0.000000000000e+00      -1.238223038853e+00       1.127414162293e-07       1.708576767402e-04      -8.621057951525e-07 
   67       7.758348423462e+02       1.556831677951e-01       0.000000000000e+00      -1.418457181917e+00       1.124735540223e-07       1.692552892639e-04      -8.515567895392e-07 
   68       7.844094592489e+02       1.625009366381e-01       0.000000000000e+00      -1.605225895190e+00       1.121829909119e-07       1.676736366337e-04      -8.563098846770e-07 
   69       7.930716702698e+02       1.694587021309e-01       0.000000000000e+00      -1.798462214124e+00       1.118755909746e-07       1.661183798272e-04      -8.767889795528e-07 
   70       8.018271637288e+02       1.765534535337e-01       0.000000000000e+00      -1.998096196898e+00       1.115608463256e-07       1.645979908694e-04      -9.110246046883e-07 
   71       8.106799006735e+02       1.837819363709e-01       0.000000000000e+00      -2.204048558249e+00       1.112458882248e-07       1.631179745301e-04      -9.564586880890e-07 
   72       8.196320011390e+02       1.911406487493e-01       0.000000000000e+00      -2.416230572379e+00       1.109349333827e-07       1.616804852992e-04      -1.009896706278e-06 
   73       8.286836304079e+02       1.986258376772e-01       0.000000000000e+00      -2.634543975844e+00       1.106286877222e-07       1.602839305503e-04      -1.067458409004e-06 
   74       8.378328852696e+02       2.062334953830e-01       0.000000000000e+00      -2.858880870458e+00       1.103237063631e-07       1.589225598938e-04      -1.124527117617e-06 
   75       8.470756802810e+02       2.139593556337e-01       0.000000000000e+00      -3.089123626186e+00       1.100117086002e-07       1.575860407201e-04      -1.175697597124e-06 
   76       8.564079945040e+02       2.217988189604e-01       0.000000000000e+00      -3.325151674841e+00       1.096832589917e-07       1.562634776867e-04      -1.215974309720e-06 
   77       8.658333361442e+02       2.297467207297e-01       0.000000000000e+00      -3.566863536050e+00       1.093421079566e-07       1.549577508399e-04      -1.244869754764e-06 
   78       8.753564388067e+02       2.377975138942e-01       0.000000000000e+00      -3.814158650072e+00       1.089946720079e-07       1.536742811109e-04      -1.263324065749e-06 
   79       8.849809574965e+02       2.459453312777e-01       0.000000000000e+00      -4.066930886815e+00       1.086457593698e-07       1.524167148462e-04      -1.272570032788e-06 
   80       8.947094032817e+02       2.541839804366e-01       0.000000000000e+00      -4.325068590033e+00       1.082982424363e-07       1.511867188717e-04      -1.274154879317e-06 
   81       9.045430779573e+02       2.625069385198e-01       0.000000000000e+00      -4.588454621522e+00       1.079527077961e-07       1.499837689148e-04      -1.269962625801e-06 
   82       9.144820087082e+02       2.709073471307e-01       0.000000000000e+00      -4.856966405328e+00       1.076070832435e-07       1.488049313864e-04      -1.262237040436e-06 
   83       9.245248827729e+02       2.793780071869e-01       0.000000000000e+00      -5.130475971936e+00       1.072562411919e-07       1.476446385212e-04      -1.253605176839e-06 
   84       9.346701916420e+02       2.879117574331e-01       0.000000000000e+00      -5.408847492594e+00       1.068944790210e-07       1.464971336965e-04      -1.246517328818e-06 
   85       9.449200247153e+02       2.965026933322e-01       0.000000000000e+00      -5.691929315785e+00       1.065248952326e-07       1.453650330908e-04      -1.241351336992e-06 
   86       9.552767876858e+02       3.051451417573e-01       0.000000000000e+00      -5.979560685469e+00       1.061523071286e-07       1.442524582400e-04      -1.237883169175e-06 
   87       9.657420045759e+02       3.138332965960e-01       0.000000000000e+00      -6.271574135573e+00       1.057804245573e-07       1.431624315700e-04      -1.235826317481e-06 
   88       9.763162727296e+02       3.225612200592e-01       0.000000000000e+00      -6.567795492004e+00       1.054116474515e-07       1.420967596882e-04      -1.234827422245e-06 
   89       9.869992178038e+02       3.313228439899e-01       0.000000000000e+00      -6.868043874666e+00       1.050468508224e-07       1.410559132283e-04      -1.234461785797e-06 
   90       9.977894487603e+02       3.401119711719e-01       0.000000000000e+00      -7.172131699480e+00       1.046851569137e-07       1.400389032497e-04      -1.234228776087e-06 
   91       1.008684512857e+03       3.489222766385e-01       0.000000000000e+00      -7.479864680398e+00       1.043236942222e-07       1.390431541886e-04      -1.233547120156e-06 
   92       1.019680850641e+03       3.577473089814e-01       0.000000000000e+00      -7.791041831416e+00       1.039573430869e-07       1.380643733637e-04      -1.231750087459e-06 
   93       1.030775074133e+03       3.665804260424e-01       0.000000000000e+00      -8.105457825654e+00       1.035808651105e-07       1.370982609048e-04      -1.228242140454e-06 
   94       1.041968119054e+03       3.754145880823e-01       0.000000000000e+00      -8.422910474058e+00       1.031966475108e-07       1.361463823607e-04      -1.223020550649e-06 
   95       1.053261636784e+03       3.842425357793e-01       0.000000000000e+00      -8.743194380454e+00       1.028087639652e-07       1.352113679665e-04      -1.216261906887e-06 
   96       1.064656700325e+03       3.930568534774e-01       0.000000000000e+00      -9.066098718625e+00       1.024206706404e-07       1.342951178634e-04      -1.208172225602e-06 
   97       1.076153777459e+03       4.018499695943e-01       0.000000000000e+00      -9.391407266680e+00       1.020350948917e-07       1.333987335519e-04      -1.198988521984e-06 
   98       1.087752703899e+03       4.106141570292e-01       0.000000000000e+00      -9.718898441423e+00       1.016539175918e-07       1.325224475220e-04      -1.188980413324e-06 
   99       1.099452656448e+03       4.193415335709e-01       0.000000000000e+00      -1.004834533273e+01       1.012780489529e-07       1.316655510627e-04      -1.178451754540e-06 
  100       1.111252126151e+03       4.280240623062e-01       0.000000000000e+00      -1.037951573792e+01       1.009072977046e-07       1.308263202471e-04      -1.167742305884e-06 
  101       1.123148891450e+03       4.366535520276e-01       0.000000000000e+00      -1.071217219611e+01       1.005402334906e-07       1.300019400964e-04      -1.157229432826e-06 
  102       1.135139991343e+03       4.452216576415e-01       0.000000000000e+00      -1.104607202261e+01       1.001740423463e-07       1.291884269213e-04      -1.147329838115e-06 
  103       1.147221698532e+03       4.537198805761e-01       0.000000000000e+00      -1.138096734329e+01       9.980437512114e-08       1.283805488407e-04      -1.138501326030e-06 
  104       1.159390411029e+03       4.621398336113e-01       0.000000000000e+00      -1.171660983428e+01       9.942697628414e-08       1.275734269665e-04      -1.131149885842e-06 
  105       1.171645521941e+03       4.704740752317e-01       0.000000000000e+00      -1.205276559628e+01       9.904343586297e-08       1.267678898712e-04      -1.125325419961e-06 
  106       1.183986889106e+03       4.787153892676e-01       0.000000000000e+00      -1.238920236300e+01       9.865667900379e-08       1.259660490957e-04      -1.120967892280e-06 
  107       1.196413934717e+03       4.868565338124e-01       0.000000000000e+00      -1.272568506027e+01       9.826925261731e-08       1.251696811856e-04      -1.117995417123e-06 
