# total [l(l+1)/2pi] C_l's (units: [microK]^2)
# for l=2 to 1996, i.e. number of multipoles equal to 1995
#
# -> if you don't want to see such a header, set 'headers' to 'no' in input file
# -> for CMB lensing (d), these are C_l^dd for the deflection field.
#    Remember the conversion factors:
#    C_l^dd (deflection) = l(l+1) C_l^phi-phi
#    C_l^gg (shear/convergence) = 1/4 (l(l+1))^2 C_l^phi-phi
#
# 1:l     2:TT                     3:EE                     4:BB                     5:TE                     6:dd                     7:dT                     8:dE                 
    2       4.164508457682e+02       1.392379019650e-02       0.000000000000e+00       1.685326981494e+00       3.748220708094e-08      -1.270915209557e-04      -6.448254315499e-06 
    3       4.086383049598e+02       2.241050620737e-02       0.000000000000e+00       1.872227003813e+00       4.675044737212e-08       6.999923687902e-06      -7.674127527590e-06 
    4       4.007350453136e+02       2.542233871048e-02       0.000000000000e+00       1.818224495311e+00       5.465568581713e-08       8.225510032410e-05      -7.718860333482e-06 
    5       3.946355544881e+02       2.295048754803e-02       0.000000000000e+00       1.642191121987e+00       6.166728145301e-08       1.269476761331e-04      -6.895201467456e-06 
    6       3.907309434380e+02       1.733891455088e-02       0.000000000000e+00       1.414331981629e+00       6.796094906106e-08       1.544389899956e-04      -5.492904131187e-06 
    7       3.887131351508e+02       1.133351330912e-02       0.000000000000e+00       1.181984707605e+00       7.365288392676e-08       1.714234610470e-04      -3.814463868730e-06 
    8       3.883341096557e+02       6.719898290639e-03       0.000000000000e+00       9.721582825329e-01       7.883150351716e-08       1.822434951582e-04      -2.129119500252e-06 
    9       3.893392442246e+02       4.013827179495e-03       0.000000000000e+00       7.988066189853e-01       8.359132957959e-08       1.890571045090e-04      -6.541802665220e-07 
   10       3.914896643135e+02       2.827859455852e-03       0.000000000000e+00       6.675685051082e-01       8.797846866057e-08       1.928023730507e-04       4.596776681598e-07 
   11       3.943616724857e+02       2.455531774324e-03       0.000000000000e+00       5.786435926161e-01       8.478662080447e-08       2.071819992989e-04       1.135186852994e-06 
   12       3.979605792458e+02       2.322903058696e-03       0.000000000000e+00       5.284286439573e-01       8.783021404639e-08       2.064338662454e-04       1.376175326671e-06 
   13       4.021097025902e+02       2.166623276667e-03       0.000000000000e+00       5.106739555175e-01       9.060653557205e-08       2.045908775846e-04       1.242528771236e-06 
   14       4.067232289581e+02       1.980629840414e-03       0.000000000000e+00       5.177881788417e-01       9.314518997611e-08       2.032213829391e-04       8.411646144393e-07 
   15       4.115337530987e+02       1.862868858582e-03       0.000000000000e+00       5.423303287845e-01       9.547092085131e-08       2.021701296628e-04       2.952512250499e-07 
   16       4.166465775385e+02       1.885664766303e-03       0.000000000000e+00       5.777258445075e-01       9.760470226484e-08       2.020911209925e-04      -2.735194155496e-07 
   17       4.221232736640e+02       2.048222959706e-03       0.000000000000e+00       6.184559565949e-01       9.956441493050e-08       2.029542460876e-04      -7.629111552419e-07 
   18       4.276746696109e+02       2.295858747757e-03       0.000000000000e+00       6.606543937762e-01       1.013240696270e-07       2.014141151616e-04      -1.107463655470e-06 
   19       4.333400331698e+02       2.591628748642e-03       0.000000000000e+00       7.023295077390e-01       1.030227523407e-07       1.979100792498e-04      -1.276312435038e-06 
   20       4.391072379648e+02       2.907571895108e-03       0.000000000000e+00       7.418387256639e-01       1.045435434126e-07       1.948231075525e-04      -1.270546051722e-06 
   21       4.450024117435e+02       3.264622038714e-03       0.000000000000e+00       7.791047526403e-01       1.059505686127e-07       1.930516366222e-04      -1.116432946567e-06 
   22       4.509645064690e+02       3.701964742700e-03       0.000000000000e+00       8.147325365100e-01       1.072272701808e-07       1.924320983860e-04      -8.718669392398e-07 
   23       4.570481533260e+02       4.240971485863e-03       0.000000000000e+00       8.495174150878e-01       1.084265811186e-07       1.914974490868e-04      -5.956401815875e-07 
   24       4.632628798585e+02       4.893915413677e-03       0.000000000000e+00       8.843788981259e-01       1.095098789840e-07       1.883513445269e-04      -3.556573863944e-07 
   25       4.695853407348e+02       5.654467002829e-03       0.000000000000e+00       9.198622054223e-01       1.105176000664e-07       1.846409034137e-04      -1.856060337953e-07 
   26       4.759307005466e+02       6.509244494433e-03       0.000000000000e+00       9.562493312112e-01       1.114324165882e-07       1.831126592513e-04      -1.040282399010e-07 
   27       4.822981295524e+02       7.456251495477e-03       0.000000000000e+00       9.930411039153e-01       1.122745546379e-07       1.828779588979e-04      -1.153969079531e-07 
   28       4.886794425725e+02       8.496579020233e-03       0.000000000000e+00       1.029362184885e+00       1.130161908792e-07       1.816609625490e-04      -2.114842794999e-07 
   29       4.951058948060e+02       9.632946053874e-03       0.000000000000e+00       1.064368402927e+00       1.137129110383e-07       1.794119120231e-04      -3.714812702469e-07 
   30       5.015782470141e+02       1.086823949281e-02       0.000000000000e+00       1.097056228120e+00       1.143796003968e-07       1.769936853901e-04      -5.584883533557e-07 
   31       5.080614397826e+02       1.220464354107e-02       0.000000000000e+00       1.126334292009e+00       1.149540251120e-07       1.753044782069e-04      -7.261376321201e-07 
   32       5.145769793279e+02       1.364275835247e-02       0.000000000000e+00       1.151576139353e+00       1.154702805468e-07       1.742478426923e-04      -8.533120764287e-07 
   33       5.211358436222e+02       1.518204111044e-02       0.000000000000e+00       1.172264710216e+00       1.159499670039e-07       1.731941346440e-04      -9.258364454618e-07 
   34       5.277244797502e+02       1.682280823527e-02       0.000000000000e+00       1.187944896673e+00       1.163649284329e-07       1.714313016003e-04      -9.324317181481e-07 
   35       5.343559526588e+02       1.857264190532e-02       0.000000000000e+00       1.198561254985e+00       1.167394573588e-07       1.691292000076e-04      -8.804005816055e-07 
   36       5.410304257443e+02       2.044233737826e-02       0.000000000000e+00       1.204247363295e+00       1.170783593202e-07       1.668286004588e-04      -7.888843646107e-07 
   37       5.477316851695e+02       2.244249854557e-02       0.000000000000e+00       1.205205984536e+00       1.173509858919e-07       1.650782717812e-04      -6.823730422364e-07 
   38       5.544727654925e+02       2.457726065166e-02       0.000000000000e+00       1.201576822411e+00       1.175868711495e-07       1.639068642151e-04      -5.762543018895e-07 
   39       5.612610683669e+02       2.684851088035e-02       0.000000000000e+00       1.193534351437e+00       1.178135457639e-07       1.631009933129e-04      -4.858994967986e-07 
   40       5.680833895901e+02       2.925751295078e-02       0.000000000000e+00       1.181328752563e+00       1.180205241484e-07       1.623119142481e-04      -4.308140454127e-07 
   41       5.749172624906e+02       3.180529105397e-02       0.000000000000e+00       1.165163982443e+00       1.181711389586e-07       1.611607935909e-04      -4.289901933868e-07 
   42       5.817746128979e+02       3.449403727127e-02       0.000000000000e+00       1.144773975550e+00       1.182828498770e-07       1.596709047473e-04      -4.753970665302e-07 
   43       5.886686858759e+02       3.732608859610e-02       0.000000000000e+00       1.119715670788e+00       1.183752759133e-07       1.580077162446e-04      -5.539448505879e-07 
   44       5.956005666533e+02       4.030352460953e-02       0.000000000000e+00       1.089478981641e+00       1.184424670149e-07       1.563726824564e-04      -6.419728455005e-07 
   45       6.025651756898e+02       4.342824094855e-02       0.000000000000e+00       1.053562549454e+00       1.184625002662e-07       1.549591509762e-04      -7.151673791369e-07 
   46       6.095742891415e+02       4.670222979025e-02       0.000000000000e+00       1.011738396804e+00       1.184542685788e-07       1.537887476743e-04      -7.670475903056e-07 
   47       6.166383086989e+02       5.012735875976e-02       0.000000000000e+00       9.638588971896e-01       1.184398489568e-07       1.528076974635e-04      -7.966825895983e-07 
   48       6.237588416453e+02       5.370528128221e-02       0.000000000000e+00       9.097836861927e-01       1.184253957921e-07       1.519227493349e-04      -8.037564060944e-07 
   49       6.309278871607e+02       5.743742726163e-02       0.000000000000e+00       8.493798702269e-01       1.183962701314e-07       1.509956744142e-04      -7.886644023041e-07 
   50       6.381341250060e+02       6.132499918390e-02       0.000000000000e+00       7.825526580417e-01       1.183265068001e-07       1.498857063074e-04      -7.532325037865e-07 
   51       6.453856817282e+02       6.536898080325e-02       0.000000000000e+00       7.093465730410e-01       1.182271813577e-07       1.486114950614e-04      -7.029770816585e-07 
   52       6.526921375606e+02       6.957011470153e-02       0.000000000000e+00       6.298720747291e-01       1.181141970318e-07       1.472442264199e-04      -6.459252682710e-07 
   53       6.600574960555e+02       7.392888821953e-02       0.000000000000e+00       5.442791385879e-01       1.179930182478e-07       1.458654495246e-04      -5.922730985302e-07 
   54       6.674797046177e+02       7.844552439106e-02       0.000000000000e+00       4.527588964792e-01       1.178557808795e-07       1.445676125587e-04      -5.545993400544e-07 
   55       6.749545464513e+02       8.312005780668e-02       0.000000000000e+00       3.554798374439e-01       1.176879769021e-07       1.434346023066e-04      -5.446939433471e-07 
   56       6.824895470159e+02       8.795260504301e-02       0.000000000000e+00       2.523740923186e-01       1.175004080883e-07       1.424734754419e-04      -5.621134568107e-07 
   57       6.900926824095e+02       9.294314553427e-02       0.000000000000e+00       1.433009309236e-01       1.173071093521e-07       1.416585459941e-04      -6.018030929903e-07 
   58       6.977680082094e+02       9.809143689719e-02       0.000000000000e+00       2.810666070889e-02       1.171151981841e-07       1.409474493833e-04      -6.569716676496e-07 
   59       7.055153503203e+02       1.033970091740e-01       0.000000000000e+00      -9.337628243863e-02       1.169230814460e-07       1.402792118983e-04      -7.189206945302e-07 
   60       7.133299958226e+02       1.088591590757e-01       0.000000000000e+00      -2.213302433874e-01       1.167184976542e-07       1.395722440352e-04      -7.768672880349e-07 
   61       7.212064444453e+02       1.144769415240e-01       0.000000000000e+00      -3.559186660591e-01       1.164850328128e-07       1.387462317315e-04      -8.204722587513e-07 
   62       7.291513463658e+02       1.202491550828e-01       0.000000000000e+00      -4.971741569155e-01       1.162303566458e-07       1.378014088384e-04      -8.488602579754e-07 
   63       7.371729330596e+02       1.261743430264e-01       0.000000000000e+00      -6.450867951535e-01       1.159666356818e-07       1.367620848629e-04      -8.642900572161e-07 
   64       7.452770361931e+02       1.322507900244e-01       0.000000000000e+00      -7.996363218705e-01       1.157020415752e-07       1.356549798734e-04      -8.697638230309e-07 
   65       7.534669073129e+02       1.384765162998e-01       0.000000000000e+00      -9.607919517154e-01       1.154397505787e-07       1.345092676787e-04      -8.690939453678e-07 
   66       7.617430375345e+02       1.448492717858e-01       0.000000000000e+00      -1.128512184537e+00       1.151768584536e-07       1.333566170808e-04      -8.669720672986e-07 
   67       7.701029772316e+02       1.513665302835e-01       0.000000000000e+00      -1.302744617035e+00       1.149032081165e-07       1.322312312036e-04      -8.690403161410e-07 
   68       7.785437573889e+02       1.580255930884e-01       0.000000000000e+00      -1.483429765334e+00       1.146064315150e-07       1.311644813644e-04      -8.805679887268e-07 
   69       7.870701264411e+02       1.648239373111e-01       0.000000000000e+00      -1.670513853166e+00       1.142925175323e-07       1.301668108745e-04      -9.018403667502e-07 
   70       7.956876661841e+02       1.717589279642e-01       0.000000000000e+00      -1.863938288452e+00       1.139711652525e-07       1.292404279945e-04      -9.315088537572e-07 
   71       8.044002260510e+02       1.788277117491e-01       0.000000000000e+00      -2.063635797423e+00       1.136496608325e-07       1.283838547435e-04      -9.678386480845e-07 
   72       8.132098093393e+02       1.860272140139e-01       0.000000000000e+00      -2.269530338841e+00       1.133323116795e-07       1.275915177886e-04      -1.008677552659e-06 
   73       8.221164594387e+02       1.933541357098e-01       0.000000000000e+00      -2.481537018238e+00       1.130198371545e-07       1.268533253027e-04      -1.051423857129e-06 
   74       8.311181460587e+02       2.008049503485e-01       0.000000000000e+00      -2.699562002143e+00       1.127087145418e-07       1.261542297936e-04      -1.092993292338e-06 
   75       8.402106514567e+02       2.083759009594e-01       0.000000000000e+00      -2.923502432315e+00       1.123904790284e-07       1.254737769025e-04      -1.129785057120e-06 
   76       8.493898304723e+02       2.160628418145e-01       0.000000000000e+00      -3.153249540392e+00       1.120554857052e-07       1.247916006762e-04      -1.158500974850e-06 
   77       8.586591179265e+02       2.238607370090e-01       0.000000000000e+00      -3.388698837157e+00       1.117075652297e-07       1.241067204131e-04      -1.178943306137e-06 
   78       8.680231898922e+02       2.317640644914e-01       0.000000000000e+00      -3.629741634144e+00       1.113532730460e-07       1.234226485615e-04      -1.191914843435e-06 
   79       8.774856472949e+02       2.397669570582e-01       0.000000000000e+00      -3.876261988235e+00       1.109975211801e-07       1.227417545558e-04      -1.198446335593e-06 
   80       8.870489508170e+02       2.478631961286e-01       0.000000000000e+00      -4.128136681520e+00       1.106432435788e-07       1.220651293201e-04      -1.199813164081e-06 
   81       8.967143558027e+02       2.560462055176e-01       0.000000000000e+00      -4.385235201152e+00       1.102910385297e-07       1.213924453273e-04      -1.197552465164e-06 
   82       9.064818471619e+02       2.643090452107e-01       0.000000000000e+00      -4.647419719210e+00       1.099387875654e-07       1.207218122151e-04      -1.193480698025e-06 
   83       9.163500742754e+02       2.726444051373e-01       0.000000000000e+00      -4.914545072552e+00       1.095812502600e-07       1.200496279577e-04      -1.189711658818e-06 
   84       9.263175320842e+02       2.810450824421e-01       0.000000000000e+00      -5.186463249957e+00       1.092125983675e-07       1.193723328228e-04      -1.188181001267e-06 
   85       9.363864719197e+02       2.895055178461e-01       0.000000000000e+00      -5.463037752340e+00       1.088359953567e-07       1.186925214937e-04      -1.189041362101e-06 
   86       9.465595226714e+02       2.980205037503e-01       0.000000000000e+00      -5.744131587299e+00       1.084563604396e-07       1.180140622797e-04      -1.191903757342e-06 
   87       9.568384587455e+02       3.065847252566e-01       0.000000000000e+00      -6.029603028283e+00       1.080774809927e-07       1.173402539750e-04      -1.196291574908e-06 
   88       9.672241559134e+02       3.151927620672e-01       0.000000000000e+00      -6.319305670210e+00       1.077018056875e-07       1.166737555287e-04      -1.201634734507e-06 
   89       9.777165471608e+02       3.238390903845e-01       0.000000000000e+00      -6.613088485073e+00       1.073302248048e-07       1.160165135473e-04      -1.207263704024e-06 
   90       9.883145785364e+02       3.325180848115e-01       0.000000000000e+00      -6.910795877553e+00       1.069618374308e-07       1.153696876295e-04      -1.212403372365e-06 
   91       9.990161650004e+02       3.412240202514e-01       0.000000000000e+00      -7.212267740630e+00       1.065937052330e-07       1.147335735337e-04      -1.216166778796e-06 
   92       1.009818146274e+03       3.499510738077e-01       0.000000000000e+00      -7.517339511191e+00       1.062205925151e-07       1.141075241773e-04      -1.217548698749e-06 
   93       1.020717489675e+03       3.586931812869e-01       0.000000000000e+00      -7.825838343486e+00       1.058371424681e-07       1.134907192493e-04      -1.215666051832e-06 
   94       1.031715201471e+03       3.674435778926e-01       0.000000000000e+00      -8.137570850356e+00       1.054457916886e-07       1.128848549466e-04      -1.210556172302e-06 
   95       1.042812924897e+03       3.761951916432e-01       0.000000000000e+00      -8.452333612525e+00       1.050507006324e-07       1.122919083478e-04      -1.202545823124e-06 
   96       1.054011718917e+03       3.849407825194e-01       0.000000000000e+00      -8.769916898767e+00       1.046553991049e-07       1.117132881848e-04      -1.192023141764e-06 
   97       1.065312031187e+03       3.936729423679e-01       0.000000000000e+00      -9.090104668228e+00       1.042626725869e-07       1.111497815391e-04      -1.179441113788e-06 
   98       1.076713671023e+03       4.023840948063e-01       0.000000000000e+00      -9.412674572747e+00       1.038744420552e-07       1.106014991207e-04      -1.165321120499e-06 
   99       1.088215782363e+03       4.110664951264e-01       0.000000000000e+00      -9.737397959176e+00       1.034916371567e-07       1.100678191276e-04      -1.150256560591e-06 
  100       1.099816816739e+03       4.197122301987e-01       0.000000000000e+00      -1.006403987170e+01       1.031140625965e-07       1.095473296879e-04      -1.134916545828e-06 
  101       1.111514506237e+03       4.283132183766e-01       0.000000000000e+00      -1.039235905417e+01       1.027402576007e-07       1.090377698835e-04      -1.120049670744e-06 
  102       1.123305836468e+03       4.368612094002e-01       0.000000000000e+00      -1.072210795240e+01       1.023673483120e-07       1.085359693557e-04      -1.106487856379e-06 
  103       1.135187019529e+03       4.453477843009e-01       0.000000000000e+00      -1.105303271651e+01       1.019908929794e-07       1.080377864924e-04      -1.095150268021e-06 
  104       1.147154431299e+03       4.537646464315e-01       0.000000000000e+00      -1.138488112320e+01       1.016065453595e-07       1.075392903946e-04      -1.086843639463e-06 
  105       1.159207625727e+03       4.621045395403e-01       0.000000000000e+00      -1.171742755643e+01       1.012159288545e-07       1.070407205509e-04      -1.081608110786e-06 
  106       1.171346679226e+03       4.703604541142e-01       0.000000000000e+00      -1.205045142133e+01       1.008220302245e-07       1.065432091050e-04      -1.079246675844e-06 
  107       1.183571246470e+03       4.785253503926e-01       0.000000000000e+00      -1.238372961381e+01       1.004274498141e-07       1.060475801462e-04      -1.079514749027e-06 
