# total [l(l+1)/2pi] C_l's (units: [microK]^2)
# for l=2 to 1996, i.e. number of multipoles equal to 1995
#
# -> if you don't want to see such a header, set 'headers' to 'no' in input file
# -> for CMB lensing (d), these are C_l^dd for the deflection field.
#    Remember the conversion factors:
#    C_l^dd (deflection) = l(l+1) C_l^phi-phi
#    C_l^gg (shear/convergence) = 1/4 (l(l+1))^2 C_l^phi-phi
#
# 1:l     2:TT                     3:EE                     4:BB                     5:TE                     6:dd                     7:dT                     8:dE                 
    2       5.488175035111e+02       2.100947480334e-02       0.000000000000e+00       1.538467082231e+00       2.505183640113e-08       1.629612162917e-03      -7.333420919951e-06 
    3       5.158201579842e+02       2.839984952072e-02       0.000000000000e+00       1.772956026110e+00       3.124299372159e-08       1.634447817853e-03      -8.099607065883e-06 
    4       4.851125662527e+02       2.597657047286e-02       0.000000000000e+00       1.689551898061e+00       3.628667814639e-08       1.596180390859e-03      -7.148369331427e-06 
    5       4.619992637132e+02       1.835615407560e-02       0.000000000000e+00       1.461248045538e+00       4.064469422703e-08       1.542729465056e-03      -5.216223034215e-06 
    6       4.458492535948e+02       1.072721440300e-02       0.000000000000e+00       1.189393470761e+00       4.442401306344e-08       1.483633882821e-03      -2.938634070113e-06 
    7       4.350833308695e+02       5.751061144714e-03       0.000000000000e+00       9.357052079461e-01       4.772850357755e-08       1.423623974733e-03      -8.437777153666e-07 
    8       4.284699562361e+02       3.444519679593e-03       0.000000000000e+00       7.304297324753e-01       5.067027314427e-08       1.365422665165e-03       7.098568630245e-07 
    9       4.249120184489e+02       2.633508753185e-03       0.000000000000e+00       5.840397393597e-01       5.332971437048e-08       1.310754280808e-03       1.556443745696e-06 
   10       4.237010510505e+02       2.271494965885e-03       0.000000000000e+00       4.943555451736e-01       5.573714495552e-08       1.260392822626e-03       1.713320829473e-06 
   11       4.242406626936e+02       1.929854555752e-03       0.000000000000e+00       4.517516808133e-01       5.636701388199e-08       1.217887112381e-03       1.341247473223e-06 
   12       4.260625805100e+02       1.622882725018e-03       0.000000000000e+00       4.435331805416e-01       5.820149600286e-08       1.172473820899e-03       6.731744318862e-07 
   13       4.287903916911e+02       1.456278449206e-03       0.000000000000e+00       4.575476266403e-01       5.984246872544e-08       1.127276814684e-03      -5.422377390896e-08 
   14       4.325848636925e+02       1.439556938004e-03       0.000000000000e+00       4.835614750027e-01       6.131220972898e-08       1.087826394532e-03      -6.411038002800e-07 
   15       4.369889251037e+02       1.504791821371e-03       0.000000000000e+00       5.138374963889e-01       6.262945934326e-08       1.050074363334e-03      -9.795203305403e-07 
   16       4.419236007834e+02       1.598121498253e-03       0.000000000000e+00       5.442048223818e-01       6.380894352837e-08       1.013310505585e-03      -1.044736371684e-06 
   17       4.473105288603e+02       1.723070682442e-03       0.000000000000e+00       5.733932201407e-01       6.486436573659e-08       9.778328609611e-04      -8.852333049222e-07 
   18       4.530693391072e+02       1.919314304075e-03       0.000000000000e+00       6.015732971769e-01       6.578212176957e-08       9.435402511544e-04      -6.051033486348e-07 
   19       4.592764143671e+02       2.207827621997e-03       0.000000000000e+00       6.300275190747e-01       6.664880346044e-08       9.120596055463e-04      -2.992245124876e-07 
   20       4.658247184338e+02       2.596909612189e-03       0.000000000000e+00       6.603872268551e-01       6.739330263773e-08       8.832439319609e-04      -7.686583870618e-08 
   21       4.726440236077e+02       3.077175883939e-03       0.000000000000e+00       6.933562705213e-01       6.806033605341e-08       8.564926180802e-04       1.626638776206e-08 
   22       4.795742724905e+02       3.631562273406e-03       0.000000000000e+00       7.290180588767e-01       6.863715356805e-08       8.297284282479e-04      -2.756898155587e-08 
   23       4.867075450537e+02       4.259598924761e-03       0.000000000000e+00       7.663247377941e-01       6.915960678542e-08       8.037709386867e-04      -1.783698557434e-07 
   24       4.941209060920e+02       4.964496974183e-03       0.000000000000e+00       8.035813066539e-01       6.960302843959e-08       7.797496303404e-04      -3.747754342688e-07 
   25       5.017595751181e+02       5.743500907091e-03       0.000000000000e+00       8.392992595563e-01       6.999522605170e-08       7.578293583864e-04      -5.618092502094e-07 
   26       5.094836518814e+02       6.592138618980e-03       0.000000000000e+00       8.719471084406e-01       7.032511417363e-08       7.371114941767e-04      -6.830647834208e-07 
   27       5.173374482341e+02       7.513014715932e-03       0.000000000000e+00       9.004837260606e-01       7.060650479128e-08       7.170899061661e-04      -7.224210872560e-07 
   28       5.253794671675e+02       8.511757639857e-03       0.000000000000e+00       9.241245483372e-01       7.082101071551e-08       6.970605951694e-04      -6.840800647544e-07 
   29       5.336308004493e+02       9.596563422453e-03       0.000000000000e+00       9.428621990660e-01       7.100600272597e-08       6.775159354020e-04      -5.868444560226e-07 
   30       5.420469976212e+02       1.077752425625e-02       0.000000000000e+00       9.570731612435e-01       7.117190761483e-08       6.590989506166e-04      -4.655361811113e-07 
   31       5.505428262066e+02       1.206466833228e-02       0.000000000000e+00       9.672690464245e-01       7.127785672319e-08       6.420809510605e-04      -3.636444747952e-07 
   32       5.591312196431e+02       1.346190753580e-02       0.000000000000e+00       9.737754058917e-01       7.134671960645e-08       6.263704572795e-04      -2.997759975168e-07 
   33       5.678263935746e+02       1.497076374218e-02       0.000000000000e+00       9.769498838373e-01       7.139301554478e-08       6.113227910146e-04      -2.852040446923e-07 
   34       5.766188488575e+02       1.659235376556e-02       0.000000000000e+00       9.770677722582e-01       7.139825475900e-08       5.960121115126e-04      -3.265809300215e-07 
   35       5.855303566545e+02       1.832911991929e-02       0.000000000000e+00       9.736091082029e-01       7.137865906251e-08       5.807083186060e-04      -4.066836613837e-07 
   36       5.945719633737e+02       2.018363914260e-02       0.000000000000e+00       9.657097366070e-01       7.133763346191e-08       5.660219736771e-04      -4.925392532806e-07 
   37       6.037357507200e+02       2.215834765767e-02       0.000000000000e+00       9.524912521056e-01       7.125518008324e-08       5.524408367076e-04      -5.477292136153e-07 
   38       6.130274448663e+02       2.425624973751e-02       0.000000000000e+00       9.335915037481e-01       7.115084578138e-08       5.400309594521e-04      -5.663476057776e-07 
   39       6.224399608716e+02       2.648041831626e-02       0.000000000000e+00       9.088029531154e-01       7.104286316088e-08       5.285373574497e-04      -5.540089434701e-07 
   40       6.319415530692e+02       2.883379436167e-02       0.000000000000e+00       8.779316490589e-01       7.092451979945e-08       5.173966797911e-04      -5.200563955814e-07 
   41       6.414926819276e+02       3.131912058449e-02       0.000000000000e+00       8.408550417041e-01       7.077192357179e-08       5.059414091441e-04      -4.762697246511e-07 
   42       6.511090769659e+02       3.393873717224e-02       0.000000000000e+00       7.977160745319e-01       7.059657070000e-08       4.942694601883e-04      -4.308079171377e-07 
   43       6.608151008750e+02       3.669470516473e-02       0.000000000000e+00       7.487936656931e-01       7.041138507193e-08       4.827029221589e-04      -3.922789917474e-07 
   44       6.706251275716e+02       3.958884615927e-02       0.000000000000e+00       6.944558302548e-01       7.021262248803e-08       4.715592651244e-04      -3.715760173973e-07 
   45       6.805452690603e+02       4.262283911761e-02       0.000000000000e+00       6.350270475670e-01       6.998611668787e-08       4.611065665441e-04      -3.787982888190e-07 
   46       6.905817923017e+02       4.579857486060e-02       0.000000000000e+00       5.703319624266e-01       6.974417810153e-08       4.514221943516e-04      -4.117252877478e-07 
   47       7.007333269452e+02       4.911788621451e-02       0.000000000000e+00       5.000232930735e-01       6.950117586011e-08       4.424596105382e-04      -4.626743956446e-07 
   48       7.109873208591e+02       5.258244177534e-02       0.000000000000e+00       4.237042284067e-01       6.926115508778e-08       4.340661035515e-04      -5.210921533508e-07 
   49       7.213190915376e+02       5.619373966180e-02       0.000000000000e+00       3.409252352800e-01       6.901470420793e-08       4.259666793751e-04      -5.732203224233e-07 
   50       7.317030388642e+02       5.995295222722e-02       0.000000000000e+00       2.512768857398e-01       6.874507649337e-08       4.178525073112e-04      -6.057711839699e-07 
   51       7.421520722232e+02       6.386042499583e-02       0.000000000000e+00       1.547054505299e-01       6.845941496770e-08       4.097303326510e-04      -6.195862985763e-07 
   52       7.526872457310e+02       6.791603092011e-02       0.000000000000e+00       5.127745109048e-02       6.816798472850e-08       4.016841586840e-04      -6.208623977820e-07 
   53       7.633261648787e+02       7.211929458868e-02       0.000000000000e+00      -5.890757883745e-02       6.787434327263e-08       3.937781242203e-04      -6.177860229022e-07 
   54       7.740826102386e+02       7.646937896555e-02       0.000000000000e+00      -1.757157673312e-01       6.757350018862e-08       3.860524966554e-04      -6.207404781987e-07 
   55       7.849662211817e+02       8.096541887832e-02       0.000000000000e+00      -2.990296502402e-01       6.725619625379e-08       3.785313582175e-04      -6.397349742574e-07 
   56       7.959823170766e+02       8.560764887612e-02       0.000000000000e+00      -4.289182089785e-01       6.692933074395e-08       3.712591163360e-04      -6.750434512853e-07 
   57       8.071313725639e+02       9.039653232862e-02       0.000000000000e+00      -5.655067513858e-01       6.660186543198e-08       3.642700141746e-04      -7.234975406426e-07 
   58       8.184085878369e+02       9.533243946894e-02       0.000000000000e+00      -7.089292283887e-01       6.627835092340e-08       3.575741071910e-04      -7.808837930796e-07 
   59       8.298035146858e+02       1.004156476426e-01       0.000000000000e+00      -8.593289368922e-01       6.595779501511e-08       3.511537428266e-04      -8.418418382757e-07 
   60       8.412996825418e+02       1.056463415565e-01       0.000000000000e+00      -1.016859222672e+00       6.563242775480e-08       3.449598895299e-04      -8.997588718235e-07 
   61       8.528807693566e+02       1.110241931019e-01       0.000000000000e+00      -1.181638600959e+00       6.529183380786e-08       3.389336994638e-04      -9.482141656095e-07 
   62       8.645515788291e+02       1.165469900494e-01       0.000000000000e+00      -1.353602756399e+00       6.494084152923e-08       3.330887579577e-04      -9.861435712806e-07 
   63       8.763211295802e+02       1.222116985908e-01       0.000000000000e+00      -1.532620419003e+00       6.458712619705e-08       3.274495327533e-04      -1.014208016882e-06 
   64       8.881963628103e+02       1.280148437724e-01       0.000000000000e+00      -1.718535286369e+00       6.423584102058e-08       3.220266079616e-04      -1.033419028661e-06 
   65       9.001819760066e+02       1.339524964045e-01       0.000000000000e+00      -1.911165280277e+00       6.388899346153e-08       3.168148332716e-04      -1.045172372320e-06 
   66       9.122802566500e+02       1.400202599706e-01       0.000000000000e+00      -2.110301803294e+00       6.354476914107e-08       3.117914010724e-04      -1.051282831391e-06 
   67       9.244909159217e+02       1.462132575362e-01       0.000000000000e+00      -2.315708995367e+00       6.319680166408e-08       3.069138514899e-04      -1.054020122740e-06 
   68       9.368130390960e+02       1.525266542009e-01       0.000000000000e+00      -2.527169052103e+00       6.283732977498e-08       3.021360389198e-04      -1.055604442670e-06 
   69       9.492517673480e+02       1.589573766451e-01       0.000000000000e+00      -2.744630504426e+00       6.247006611622e-08       2.974665050091e-04      -1.056427618670e-06 
   70       9.618126773406e+02       1.655027200922e-01       0.000000000000e+00      -2.968088786852e+00       6.210104085163e-08       2.929240183255e-04      -1.056361078653e-06 
   71       9.744996741848e+02       1.721598441907e-01       0.000000000000e+00      -3.197543261068e+00       6.173477712974e-08       2.885202155475e-04      -1.055248997187e-06 
   72       9.873148792824e+02       1.789257736192e-01       0.000000000000e+00      -3.432997650582e+00       6.137394307743e-08       2.842587105563e-04      -1.052905921486e-06 
   73       1.000258518168e+03       1.857973986928e-01       0.000000000000e+00      -3.674460475369e+00       6.101897722506e-08       2.801341718421e-04      -1.049114321425e-06 
   74       1.013328808349e+03       1.927714759691e-01       0.000000000000e+00      -3.921945486520e+00       6.066768659672e-08       2.761313682234e-04      -1.043622063569e-06 
   75       1.026521847153e+03       1.998446288540e-01       0.000000000000e+00      -4.175472100889e+00       6.031481669984e-08       2.722241828799e-04      -1.036139809224e-06 
   76       1.039833577258e+03       2.070130932079e-01       0.000000000000e+00      -4.435029600610e+00       5.995437738110e-08       2.683851895697e-04      -1.026471885981e-06 
   77       1.053266345036e+03       2.142718992681e-01       0.000000000000e+00      -4.700461233904e+00       5.958869646361e-08       2.646197522478e-04      -1.014956632002e-06 
   78       1.066823339947e+03       2.216155409541e-01       0.000000000000e+00      -4.971559670967e+00       5.922178378947e-08       2.609393523925e-04      -1.002140950230e-06 
   79       1.080506554509e+03       2.290382130842e-01       0.000000000000e+00      -5.248101060764e+00       5.885663721305e-08       2.573513605742e-04      -9.886624870695e-07 
   80       1.094316714750e+03       2.365338067529e-01       0.000000000000e+00      -5.529844722640e+00       5.849503989417e-08       2.538585778538e-04      -9.752552959067e-07 
   81       1.108253210650e+03       2.440959047077e-01       0.000000000000e+00      -5.816532837939e+00       5.813734380474e-08       2.504587625336e-04      -9.627556394422e-07 
   82       1.122314026591e+03       2.517177767261e-01       0.000000000000e+00      -6.107890141619e+00       5.778223909251e-08       2.471441422599e-04      -9.521079308335e-07 
   83       1.136495671804e+03       2.593923749925e-01       0.000000000000e+00      -6.403623613876e+00       5.742650894571e-08       2.439009114780e-04      -9.443708136479e-07 
   84       1.150794667140e+03       2.671126371353e-01       0.000000000000e+00      -6.703449543937e+00       5.706657398425e-08       2.407146454152e-04      -9.404639489505e-07 
   85       1.165212440948e+03       2.748724631846e-01       0.000000000000e+00      -7.007180552000e+00       5.670432576948e-08       2.375892664407e-04      -9.403215150393e-07 
   86       1.179751121079e+03       2.826658928505e-01       0.000000000000e+00      -7.314652495362e+00       5.634272396313e-08       2.345318233837e-04      -9.435405579091e-07 
   87       1.194412007973e+03       2.904868128026e-01       0.000000000000e+00      -7.625698528321e+00       5.598404079861e-08       2.315467166266e-04      -9.496156784585e-07 
   88       1.209195531255e+03       2.983289572176e-01       0.000000000000e+00      -7.940149253832e+00       5.562973765732e-08       2.286354355324e-04      -9.579321064667e-07 
   89       1.224101206345e+03       3.061859083273e-01       0.000000000000e+00      -8.257832875159e+00       5.528033405500e-08       2.257962883014e-04      -9.677586037770e-07 
   90       1.239127591057e+03       3.140510969662e-01       0.000000000000e+00      -8.578575347531e+00       5.493526886028e-08       2.230241242590e-04      -9.782401966844e-07 
   91       1.254272242208e+03       3.219178031192e-01       0.000000000000e+00      -8.902200529790e+00       5.459275356759e-08       2.203100485734e-04      -9.883907375297e-07 
   92       1.269531672214e+03       3.297791564693e-01       0.000000000000e+00      -9.228530336053e+00       5.424961744650e-08       2.176411294031e-04      -9.970852954980e-07 
   93       1.284902496459e+03       3.376281985867e-01       0.000000000000e+00      -9.557376448918e+00       5.390261357023e-08       2.150049853739e-04      -1.003307777693e-06 
   94       1.300385167022e+03       3.454580790047e-01       0.000000000000e+00      -9.888513704017e+00       5.355316568595e-08       2.124054094346e-04      -1.006975444608e-06 
   95       1.315980722878e+03       3.532618897837e-01       0.000000000000e+00      -1.022170296427e+01       5.320373018974e-08       2.098497004112e-04      -1.008285329242e-06 
   96       1.331689622488e+03       3.610326078723e-01       0.000000000000e+00      -1.055669923698e+01       5.285638579730e-08       2.073439645813e-04      -1.007477328083e-06 
   97       1.347511716747e+03       3.687630965016e-01       0.000000000000e+00      -1.089325170968e+01       5.251276696490e-08       2.048929948724e-04      -1.004836705577e-06 
   98       1.363446221934e+03       3.764461065788e-01       0.000000000000e+00      -1.123110378594e+01       5.217399353164e-08       2.025001467974e-04      -1.000696652793e-06 
   99       1.379491692659e+03       3.840742780812e-01       0.000000000000e+00      -1.156999312116e+01       5.184059650191e-08       2.001672111251e-04      -9.954409002619e-07 
  100       1.395645994816e+03       3.916401414500e-01       0.000000000000e+00      -1.190965165845e+01       5.151243988725e-08       1.978942832871e-04      -9.895063850026e-07 
  101       1.411906278528e+03       3.991361189842e-01       0.000000000000e+00      -1.224980566439e+01       5.118863852645e-08       1.956796295203e-04      -9.833859717300e-07 
  102       1.428268951097e+03       4.065545262342e-01       0.000000000000e+00      -1.259017576490e+01       5.086747180311e-08       1.935195497452e-04      -9.776312282449e-07 
  103       1.444729649953e+03       4.138875733963e-01       0.000000000000e+00      -1.293047698102e+01       5.054629317939e-08       1.914082371800e-04      -9.728552550080e-07 
  104       1.461284139735e+03       4.211275746006e-01       0.000000000000e+00      -1.327042445673e+01       5.022251024375e-08       1.893399238061e-04      -9.696017481785e-07 
  105       1.477931199795e+03       4.282676049733e-01       0.000000000000e+00      -1.360975144630e+01       4.989704385085e-08       1.873161315880e-04      -9.679154457024e-07 
  106       1.494670078135e+03       4.353009353462e-01       0.000000000000e+00      -1.394819383483e+01       4.957161707791e-08       1.853396181156e-04      -9.676902753340e-07 
  107       1.511499585423e+03       4.422208359214e-01       0.000000000000e+00      -1.428548476049e+01       4.924772599141e-08       1.834121398924e-04      -9.687941879573e-07 
