# total [l(l+1)/2pi] C_l's (units: [microK]^2)
# for l=2 to 1996, i.e. number of multipoles equal to 1995
#
# -> if you don't want to see such a header, set 'headers' to 'no' in input file
# -> for CMB lensing (d), these are C_l^dd for the deflection field.
#    Remember the conversion factors:
#    C_l^dd (deflection) = l(l+1) C_l^phi-phi
#    C_l^gg (shear/convergence) = 1/4 (l(l+1))^2 C_l^phi-phi
#
# 1:l     2:TT                     3:EE                     4:BB                     5:TE                     6:dd                     7:dT                     8:dE                 
    2       1.028205015570e+03       2.978619711145e-02       0.000000000000e+00       2.607876570689e+00       4.950740743103e-08       2.980402739180e-03      -1.212552245520e-05 
    3       9.739015310083e+02       3.699735538388e-02       0.000000000000e+00       2.881893783558e+00       6.127315200781e-08       2.998053153236e-03      -1.274463698852e-05 
    4       9.223871676732e+02       3.099461163844e-02       0.000000000000e+00       2.661536440801e+00       7.114397978465e-08       2.931496366284e-03      -1.049500102436e-05 
    5       8.839027751382e+02       2.002404442032e-02       0.000000000000e+00       2.242584619394e+00       7.971734295036e-08       2.834221075564e-03      -6.854607629627e-06 
    6       8.575299760873e+02       1.093658335921e-02       0.000000000000e+00       1.790222035169e+00       8.723111797819e-08       2.726522024739e-03      -3.028882133985e-06 
    7       8.405935575030e+02       5.939191142403e-03       0.000000000000e+00       1.398113632800e+00       9.383410716260e-08       2.619087437092e-03       8.923008877743e-08 
    8       8.309352405807e+02       3.946733274599e-03       0.000000000000e+00       1.104501645941e+00       9.964933588446e-08       2.516438676535e-03       2.012517968498e-06 
    9       8.261375000458e+02       3.194544239763e-03       0.000000000000e+00       9.146866887282e-01       1.048220706339e-07       2.418811144028e-03       2.654685970149e-06 
   10       8.255228991777e+02       2.688054711876e-03       0.000000000000e+00       8.151158906862e-01       1.095106418162e-07       2.326424146008e-03       2.252423179316e-06 
   11       8.277699986336e+02       2.252089740563e-03       0.000000000000e+00       7.841035979893e-01       1.108149764718e-07       2.248798296311e-03       1.245106526039e-06 
   12       8.321390075530e+02       2.000149825845e-03       0.000000000000e+00       7.997760043601e-01       1.144303315578e-07       2.168440172244e-03       8.038755258700e-08 
   13       8.386224960828e+02       1.965450830799e-03       0.000000000000e+00       8.432165472378e-01       1.176672886104e-07       2.087874030519e-03      -8.672763104333e-07 
   14       8.464214062178e+02       2.074741660426e-03       0.000000000000e+00       9.001167664605e-01       1.205690090563e-07       2.014365850525e-03      -1.375223127177e-06 
   15       8.552010405007e+02       2.266337534487e-03       0.000000000000e+00       9.619192721805e-01       1.231725181706e-07       1.942878350006e-03      -1.420543382252e-06 
   16       8.651860184994e+02       2.547330359122e-03       0.000000000000e+00       1.024982372900e+00       1.255068797707e-07       1.872095575512e-03      -1.126618815495e-06 
   17       8.759837551416e+02       2.957497797170e-03       0.000000000000e+00       1.088988184563e+00       1.275984601422e-07       1.808709230772e-03      -6.777354850159e-07 
   18       8.875166677909e+02       3.518327077624e-03       0.000000000000e+00       1.155237636575e+00       1.294205073279e-07       1.748415209489e-03      -2.772430995779e-07 
   19       8.997896053835e+02       4.226238580029e-03       0.000000000000e+00       1.225108587985e+00       1.311429908830e-07       1.691341830012e-03      -3.905303744305e-08 
   20       9.123903792038e+02       5.066454822361e-03       0.000000000000e+00       1.299509754209e+00       1.326262217148e-07       1.636516351855e-03      -3.311535217582e-08 
   21       9.254885376411e+02       6.037169599003e-03       0.000000000000e+00       1.377292477048e+00       1.339580146714e-07       1.585550314354e-03      -2.279243104720e-07 
   22       9.391845776026e+02       7.139030652003e-03       0.000000000000e+00       1.456091913899e+00       1.351131833181e-07       1.538486890248e-03      -5.188315035519e-07 
   23       9.533607449946e+02       8.374002445630e-03       0.000000000000e+00       1.533446527731e+00       1.361621015780e-07       1.494188440474e-03      -8.129161177277e-07 
   24       9.677026938848e+02       9.743770528193e-03       0.000000000000e+00       1.606642724496e+00       1.370562083654e-07       1.449754564426e-03      -1.010853094730e-06 
   25       9.823466946441e+02       1.125205819725e-02       0.000000000000e+00       1.673912481852e+00       1.378499728705e-07       1.407538107158e-03      -1.074209726837e-06 
   26       9.974352584703e+02       1.290488825491e-02       0.000000000000e+00       1.733905320943e+00       1.385214176046e-07       1.370339958947e-03      -1.001293506934e-06 
   27       1.012900636024e+03       1.471786706445e-02       0.000000000000e+00       1.786371732834e+00       1.390978739568e-07       1.335749406306e-03      -8.475572783587e-07 
   28       1.028547346939e+03       1.670912907499e-02       0.000000000000e+00       1.831559962498e+00       1.395435582090e-07       1.298896890271e-03      -6.983792620804e-07 
   29       1.044422314418e+03       1.888776382286e-02       0.000000000000e+00       1.869827972228e+00       1.399318379227e-07       1.260730896782e-03      -5.902127851854e-07 
   30       1.060564024263e+03       2.125949924111e-02       0.000000000000e+00       1.901765394974e+00       1.402828341607e-07       1.224183435089e-03      -5.464658958809e-07 
   31       1.076931858641e+03       2.382967252540e-02       0.000000000000e+00       1.927930063953e+00       1.405157563260e-07       1.191783562220e-03      -5.856376319893e-07 
   32       1.093541484773e+03       2.660548905731e-02       0.000000000000e+00       1.947719263313e+00       1.406755349312e-07       1.163522368334e-03      -6.879921807537e-07 
   33       1.110360013156e+03       2.959454001958e-02       0.000000000000e+00       1.960061655132e+00       1.407909313255e-07       1.137554419296e-03      -8.087612506557e-07 
   34       1.127307193940e+03       3.280407225094e-02       0.000000000000e+00       1.963822267928e+00       1.408258892265e-07       1.111304224766e-03      -8.959079803528e-07 
   35       1.144419148653e+03       3.624056789488e-02       0.000000000000e+00       1.958252230880e+00       1.408122932719e-07       1.084734052507e-03      -9.373609204065e-07 
   36       1.161729518517e+03       3.990996006298e-02       0.000000000000e+00       1.942685720808e+00       1.407566822835e-07       1.058437861767e-03      -9.356200426676e-07 
   37       1.179239902334e+03       4.381785219534e-02       0.000000000000e+00       1.916537325976e+00       1.406195529468e-07       1.032829150362e-03      -8.974786343610e-07 
   38       1.196987266782e+03       4.797001699113e-02       0.000000000000e+00       1.879709898046e+00       1.404392982499e-07       1.008292351434e-03      -8.364162412239e-07 
   39       1.214990365340e+03       5.237201391942e-02       0.000000000000e+00       1.832327454803e+00       1.402517867904e-07       9.850064866352e-04      -7.724814832297e-07 
   40       1.233226076847e+03       5.702902469394e-02       0.000000000000e+00       1.774634989323e+00       1.400438609825e-07       9.628330727982e-04      -7.327592857424e-07 
   41       1.251647244529e+03       6.194594619938e-02       0.000000000000e+00       1.706868502471e+00       1.397685871961e-07       9.414385779625e-04      -7.436669139389e-07 
   42       1.270253737176e+03       6.712776386909e-02       0.000000000000e+00       1.628797395884e+00       1.394485449739e-07       9.208995183611e-04      -8.009536337230e-07 
   43       1.289037127117e+03       7.257925909281e-02       0.000000000000e+00       1.540044889395e+00       1.391090791318e-07       9.012787432309e-04      -8.867947555504e-07 
   44       1.307957642847e+03       7.830488669407e-02       0.000000000000e+00       1.440209753270e+00       1.387427258220e-07       8.824274343336e-04      -9.763847789340e-07 
   45       1.326967978987e+03       8.430870105056e-02       0.000000000000e+00       1.328891426360e+00       1.383215169896e-07       8.640861509626e-04      -1.044163400948e-06 
   46       1.346099965808e+03       9.059414641559e-02       0.000000000000e+00       1.205780063148e+00       1.378696455709e-07       8.463374715567e-04      -1.088041765436e-06 
   47       1.365398937082e+03       9.716417626524e-02       0.000000000000e+00       1.070589265374e+00       1.374153885766e-07       8.292882017290e-04      -1.114398236921e-06 
   48       1.384898010404e+03       1.040212864204e-01       0.000000000000e+00       9.230300400597e-01       1.369667301751e-07       8.129283458210e-04      -1.132156809875e-06 
   49       1.404616758475e+03       1.111674954756e-01       0.000000000000e+00       7.628099514221e-01       1.365052001515e-07       7.971107527481e-04      -1.153087243693e-06 
   50       1.424563056150e+03       1.186044095104e-01       0.000000000000e+00       5.896571012429e-01       1.359979042918e-07       7.816290767602e-04      -1.188886271749e-06 
   51       1.444742295249e+03       1.263334823353e-01       0.000000000000e+00       4.034017112312e-01       1.354589036278e-07       7.665415860621e-04      -1.240241162068e-06 
   52       1.465148374233e+03       1.343557920568e-01       0.000000000000e+00       2.039152193114e-01       1.349083835032e-07       7.519403007871e-04      -1.303913652192e-06 
   53       1.485759589761e+03       1.426719477343e-01       0.000000000000e+00      -8.912300651729e-03       1.343533244997e-07       7.378530066641e-04      -1.375480818860e-06 
   54       1.506537457417e+03       1.512820737755e-01       0.000000000000e+00      -2.351718185356e-01       1.337838786232e-07       7.242327938182e-04      -1.449207974971e-06 
   55       1.527442722237e+03       1.601858912269e-01       0.000000000000e+00      -4.749285471366e-01       1.331817949050e-07       7.109979822787e-04      -1.519220242466e-06 
   56       1.548490749487e+03       1.693830210448e-01       0.000000000000e+00      -7.282002950955e-01       1.325606417632e-07       6.981957176962e-04      -1.583850538202e-06 
   57       1.569707828562e+03       1.788727288298e-01       0.000000000000e+00      -9.949731753133e-01       1.319380507250e-07       6.858793171884e-04      -1.642660624837e-06 
   58       1.591114690330e+03       1.886538229603e-01       0.000000000000e+00      -1.275207053969e+00       1.313229689183e-07       6.740564193729e-04      -1.695283993028e-06 
   59       1.612725997601e+03       1.987246427622e-01       0.000000000000e+00      -1.568834977716e+00       1.307134302484e-07       6.626824302470e-04      -1.741436976878e-06 
   60       1.634549835581e+03       2.090830466796e-01       0.000000000000e+00      -1.875762600877e+00       1.300941230748e-07       6.516536896116e-04      -1.780930330458e-06 
   61       1.656590717020e+03       2.197262344101e-01       0.000000000000e+00      -2.195890978794e+00       1.294445286682e-07       6.408496475237e-04      -1.813698994129e-06 
   62       1.678860538583e+03       2.306501934214e-01       0.000000000000e+00      -2.529192222330e+00       1.287741532415e-07       6.302928909437e-04      -1.839874811489e-06 
   63       1.701369190760e+03       2.418501066419e-01       0.000000000000e+00      -2.875649885659e+00       1.280981123944e-07       6.200299627213e-04      -1.859759380886e-06 
   64       1.724120870064e+03       2.533204907738e-01       0.000000000000e+00      -3.235237263842e+00       1.274265565939e-07       6.100836195492e-04      -1.873823164097e-06 
   65       1.747113681016e+03       2.650551791947e-01       0.000000000000e+00      -3.607917561407e+00       1.267634424148e-07       6.004495981818e-04      -1.882721165592e-06 
   66       1.770339238118e+03       2.770473048600e-01       0.000000000000e+00      -3.993644060941e+00       1.261052004803e-07       5.910932547798e-04      -1.887309127746e-06 
   67       1.793782267841e+03       2.892892832051e-01       0.000000000000e+00      -4.392360291671e+00       1.254392968135e-07       5.819460773828e-04      -1.888660242006e-06 
   68       1.817427421843e+03       3.017733195248e-01       0.000000000000e+00      -4.803982192951e+00       1.247504503613e-07       5.729339627426e-04      -1.887882029756e-06 
   69       1.841282209439e+03       3.144930887135e-01       0.000000000000e+00      -5.228340031040e+00       1.240459778059e-07       5.640804868484e-04      -1.885461818769e-06 
   70       1.865358018188e+03       3.274423667334e-01       0.000000000000e+00      -5.665224961916e+00       1.233377589707e-07       5.554283219387e-04      -1.881754373772e-06 
   71       1.889663104025e+03       3.406145326335e-01       0.000000000000e+00      -6.114405708375e+00       1.226347034035e-07       5.470085814202e-04      -1.877168154526e-06 
   72       1.914202377680e+03       3.540025648655e-01       0.000000000000e+00      -6.575628268129e+00       1.219420640303e-07       5.388392878236e-04      -1.872168336870e-06 
   73       1.938977191082e+03       3.675990376000e-01       0.000000000000e+00      -7.048615621906e+00       1.212606983953e-07       5.309237853298e-04      -1.867279900896e-06 
   74       1.963985123778e+03       3.813961170419e-01       0.000000000000e+00      -7.533067441545e+00       1.205862759725e-07       5.232490968673e-04      -1.863090786248e-06 
   75       1.989219769338e+03       3.953855577468e-01       0.000000000000e+00      -8.028659798094e+00       1.199084300402e-07       5.157842257795e-04      -1.860255114559e-06 
   76       2.014674532191e+03       4.095585870401e-01       0.000000000000e+00      -8.535066624097e+00       1.192153447686e-07       5.084941824570e-04      -1.859347091625e-06 
   77       2.040355289598e+03       4.239055420871e-01       0.000000000000e+00      -9.052029264065e+00       1.185116110944e-07       5.013905322525e-04      -1.860368717966e-06 
   78       2.066269661331e+03       4.384161596401e-01       0.000000000000e+00      -9.579299135466e+00       1.178051389173e-07       4.944914101132e-04      -1.863114088225e-06 
   79       2.092423074862e+03       4.530796761818e-01       0.000000000000e+00      -1.011661725138e+01       1.171018437533e-07       4.878060219615e-04      -1.867301425623e-06 
   80       2.118818634011e+03       4.678848219462e-01       0.000000000000e+00      -1.066371437467e+01       1.164052468101e-07       4.813336907663e-04      -1.872566969382e-06 
   81       2.145456987597e+03       4.828198149405e-01       0.000000000000e+00      -1.122031117218e+01       1.157160478506e-07       4.750628725655e-04      -1.878458689018e-06 
   82       2.172336198084e+03       4.978723549661e-01       0.000000000000e+00      -1.178611836893e+01       1.150316701415e-07       4.689701424389e-04      -1.884429825495e-06 
   83       2.199451610227e+03       5.130296176398e-01       0.000000000000e+00      -1.236083690227e+01       1.143457767833e-07       4.630191504325e-04      -1.889832259244e-06 
   84       2.226798351885e+03       5.282785791056e-01       0.000000000000e+00      -1.294414907237e+01       1.136513157222e-07       4.571730610988e-04      -1.894079677588e-06 
   85       2.254379600497e+03       5.436070651146e-01       0.000000000000e+00      -1.353568997026e+01       1.129520223108e-07       4.514378742575e-04      -1.897199365640e-06 
   86       2.282199452557e+03       5.590028657071e-01       0.000000000000e+00      -1.413507157380e+01       1.122537370986e-07       4.458278569168e-04      -1.899404529662e-06 
   87       2.310260327470e+03       5.744534195711e-01       0.000000000000e+00      -1.474189133313e+01       1.115609437427e-07       4.403524998856e-04      -1.900937559104e-06 
   88       2.338562880433e+03       5.899458136217e-01       0.000000000000e+00      -1.535573217349e+01       1.108765251827e-07       4.350160370798e-04      -1.902071504828e-06 
   89       2.367105915332e+03       6.054667825797e-01       0.000000000000e+00      -1.597616249810e+01       1.102015048159e-07       4.298169509055e-04      -1.903111587046e-06 
   90       2.395886297617e+03       6.210027085510e-01       0.000000000000e+00      -1.660273619103e+01       1.095347723212e-07       4.247474637211e-04      -1.904396732968e-06 
   91       2.424898867195e+03       6.365396206063e-01       0.000000000000e+00      -1.723499262003e+01       1.088727937800e-07       4.197930153769e-04      -1.906301144154e-06 
   92       2.454136351317e+03       6.520631943592e-01       0.000000000000e+00      -1.787245663943e+01       1.082093057420e-07       4.149317268331e-04      -1.909235893580e-06 
   93       2.483591689830e+03       6.675590217358e-01       0.000000000000e+00      -1.851464821477e+01       1.075378950153e-07       4.101422269806e-04      -1.913553198352e-06 
   94       2.513265600210e+03       6.830134676055e-01       0.000000000000e+00      -1.916111294639e+01       1.068613752768e-07       4.054303932117e-04      -1.919230755784e-06 
   95       2.543159994544e+03       6.984129418087e-01       0.000000000000e+00      -1.981139616328e+01       1.061846006628e-07       4.008076022821e-04      -1.926119466473e-06 
   96       2.573275615260e+03       7.137436436907e-01       0.000000000000e+00      -2.046503384342e+01       1.055116798055e-07       3.962826396410e-04      -1.934032294554e-06 
   97       2.603611981126e+03       7.289915653902e-01       0.000000000000e+00      -2.112155274871e+01       1.048458442221e-07       3.918614531769e-04      -1.942741832644e-06 
   98       2.634167333254e+03       7.441424951269e-01       0.000000000000e+00      -2.178047055997e+01       1.041893092309e-07       3.875469004197e-04      -1.951977810750e-06 
   99       2.664938581099e+03       7.591820204895e-01       0.000000000000e+00      -2.244129601180e+01       1.035431272330e-07       3.833384892014e-04      -1.961424549126e-06 
  100       2.695921248458e+03       7.740955317240e-01       0.000000000000e+00      -2.310352902760e+01       1.029070332005e-07       3.792321117728e-04      -1.970718355078e-06 
  101       2.727109419473e+03       7.888682250216e-01       0.000000000000e+00      -2.376666085444e+01       1.022792822096e-07       3.752197723780e-04      -1.979444863730e-06 
  102       2.758495684629e+03       8.034851058064e-01       0.000000000000e+00      -2.443017419802e+01       1.016564788604e-07       3.712893082864e-04      -1.987136322732e-06 
  103       2.790071086757e+03       8.179309920240e-01       0.000000000000e+00      -2.509354335764e+01       1.010333984206e-07       3.674241042810e-04      -1.993268820929e-06 
  104       2.821827034656e+03       8.321908785746e-01       0.000000000000e+00      -2.575623870672e+01       1.004049232143e-07       3.636084843699e-04      -1.997379832170e-06 
  105       2.853761454678e+03       8.462510795994e-01       0.000000000000e+00      -2.641774053320e+01       9.977287749679e-08       3.598457824069e-04      -1.999454356535e-06 
  106       2.885873373331e+03       8.600982473490e-01       0.000000000000e+00      -2.707752732907e+01       9.914067051444e-08       3.561433771527e-04      -1.999611514534e-06 
  107       2.918160991875e+03       8.737190319857e-01       0.000000000000e+00      -2.773507179217e+01       9.851126268299e-08       3.525072079353e-04      -1.997992004654e-06 
